-899648.09,-1583989.09,-957.82,-321.6,784.55,-1639009.51,-915060.6,-42268.93
-899662.58,-1584016.72,-935.82,-306.58,784.81,-1639033.39,-915051.49,-42301.39
-899698.79,-1584042.73,-940.11,-315.7,810.56,-1639057.53,-915111.83,-42254.45
-899743.58,-1584068.48,-965.06,-327.77,818.88,-1639080.59,-915223.68,-42175.86
-899773.35,-1584096.38,-975.79,-337.96,795.81,-1639105.81,-915236.56,-42195.44
-899648.09,-1583989.09,-957.82,-321.6,784.55,-1639009.51,-915060.6,-42268.93
-899662.58,-1584016.72,-935.82,-306.58,784.81,-1639033.39,-915051.49,-42301.39
-899698.79,-1584042.73,-940.11,-315.7,810.56,-1639057.53,-915111.83,-42254.45
-899743.58,-1584068.48,-965.06,-327.77,818.88,-1639080.59,-915223.68,-42175.86
-899773.35,-1584096.38,-975.79,-337.96,795.81,-1639105.81,-915236.56,-42195.44
-899785.96,-1584122.13,-974.18,-312.21,777.57,-1639130.48,-915139.73,-42251.23
-899802.05,-1584148.14,-970.42,-299.87,774.89,-1639153.55,-915115.05,-42263.57
-899837.19,-1584174.43,-975.25,-314.35,784.28,-1639178.49,-915239.24,-42226.29
-899875.55,-1584200.72,-996.44,-335.28,783.21,-1639202.9,-915315.41,-42146.89
-899911.49,-1584226.73,-1013.07,-321.06,775.69,-1639225.43,-915343.85,-42128.12
-899785.96,-1584122.13,-974.18,-312.21,777.57,-1639130.48,-915139.73,-42251.23
-899802.05,-1584148.14,-970.42,-299.87,774.89,-1639153.55,-915115.05,-42263.57
-899837.19,-1584174.43,-975.25,-314.35,784.28,-1639178.49,-915239.24,-42226.29
-899875.55,-1584200.72,-996.44,-335.28,783.21,-1639202.9,-915315.41,-42146.89
-899911.49,-1584226.73,-1013.07,-321.06,775.69,-1639225.43,-915343.85,-42128.12
-899925.97,-1584254.63,-1002.34,-292.36,760.67,-1639251.45,-915314.34,-42211.54
-899935.09,-1584280.64,-991.08,-296.38,752.63,-1639276.13,-915236.02,-42269.74
-899969.42,-1584307.2,-991.88,-309.8,759.33,-1639299.73,-915310.59,-42233.53
-900016.09,-1584335.63,-1012.0,-335.81,768.45,-1639325.75,-915417.07,-42121.41
-900043.18,-1584362.45,-1025.95,-359.95,760.14,-1639349.89,-915435.85,-42113.37
-899925.97,-1584254.63,-1002.34,-292.36,760.67,-1639251.45,-915314.34,-42211.54
-899935.09,-1584280.64,-991.08,-296.38,752.63,-1639276.13,-915236.02,-42269.74
-899969.42,-1584307.2,-991.88,-309.8,759.33,-1639299.73,-915310.59,-42233.53
-900016.09,-1584335.63,-1012.0,-335.81,768.45,-1639325.75,-915417.07,-42121.41
-900043.18,-1584362.45,-1025.95,-359.95,760.14,-1639349.89,-915435.85,-42113.37
-900052.84,-1584387.4,-1019.51,-348.96,750.21,-1639372.68,-915356.45,-42171.84
-900064.91,-1584413.15,-1017.09,-333.94,756.92,-1639397.9,-915317.02,-42200.27
-900097.1,-1584439.43,-1022.19,-337.15,764.16,-1639420.7,-915392.39,-42119.54
-900143.23,-1584467.33,-1041.5,-359.15,767.38,-1639446.71,-915490.29,-42045.77
-900176.22,-1584493.61,-1047.13,-350.03,750.48,-1639470.85,-915519.8,-42066.7
-900052.84,-1584387.4,-1019.51,-348.96,750.21,-1639372.68,-915356.45,-42171.84
-900064.91,-1584413.15,-1017.09,-333.94,756.92,-1639397.9,-915317.02,-42200.27
-900097.1,-1584439.43,-1022.19,-337.15,764.16,-1639420.7,-915392.39,-42119.54
-900143.23,-1584467.33,-1041.5,-359.15,767.38,-1639446.71,-915490.29,-42045.77
-900176.22,-1584493.61,-1047.13,-350.03,750.48,-1639470.85,-915519.8,-42066.7
-900189.63,-1584518.29,-1028.63,-333.94,737.88,-1639493.38,-915465.62,-42120.07
-900198.22,-1584540.82,-1017.09,-321.6,751.82,-1639514.04,-915484.66,-42152.79
-900230.67,-1584567.91,-1027.82,-345.2,772.21,-1639539.52,-915570.49,-42090.57
-900272.51,-1584597.41,-1045.53,-376.85,770.06,-1639566.61,-915607.51,-42032.1
-900307.38,-1584625.31,-1047.4,-372.02,755.85,-1639591.82,-915638.89,-42015.47
-900189.63,-1584518.29,-1028.63,-333.94,737.88,-1639493.38,-915465.62,-42120.07
-900198.22,-1584540.82,-1017.09,-321.6,751.82,-1639514.04,-915484.66,-42152.79
-900230.67,-1584567.91,-1027.82,-345.2,772.21,-1639539.52,-915570.49,-42090.57
-900272.51,-1584597.41,-1045.53,-376.85,770.06,-1639566.61,-915607.51,-42032.1
-900307.38,-1584625.31,-1047.4,-372.02,755.85,-1639591.82,-915638.89,-42015.47
-900318.11,-1584650.52,-1021.39,-349.22,742.44,-1639614.89,-915547.69,-42089.49
-900336.35,-1584677.61,-1003.68,-349.76,743.24,-1639639.56,-915534.28,-42105.05
-900372.02,-1584704.17,-1003.68,-335.01,756.65,-1639664.51,-915648.54,-42054.89
-900409.84,-1584731.52,-1023.8,-372.02,769.79,-1639690.79,-915716.14,-42007.42
-900439.88,-1584758.35,-1032.38,-370.68,763.89,-1639714.67,-915736.25,-42019.49
-900318.11,-1584650.52,-1021.39,-349.22,742.44,-1639614.89,-915547.69,-42089.49
-900336.35,-1584677.61,-1003.68,-349.76,743.24,-1639639.56,-915534.28,-42105.05
-900372.02,-1584704.17,-1003.68,-335.01,756.65,-1639664.51,-915648.54,-42054.89
-900409.84,-1584731.52,-1023.8,-372.02,769.79,-1639690.79,-915716.14,-42007.42
-900439.88,-1584758.35,-1032.38,-370.68,763.89,-1639714.67,-915736.25,-42019.49
-900456.24,-1584783.83,-1011.46,-358.61,743.24,-1639738.27,-915712.65,-42066.16
-900463.22,-1584808.77,-994.29,-350.83,741.63,-1639761.34,-915618.5,-42097.54
-900500.23,-1584835.86,-994.83,-344.13,749.95,-1639786.55,-915709.7,-42054.89
-900546.1,-1584861.34,-1012.0,-361.56,758.8,-1639810.15,-915809.21,-41973.09
-900579.63,-1584885.21,-1018.43,-360.76,748.07,-1639831.88,-915834.42,-41986.5
-900456.24,-1584783.83,-1011.46,-358.61,743.24,-1639738.27,-915712.65,-42066.16
-900463.22,-1584808.77,-994.29,-350.83,741.63,-1639761.34,-915618.5,-42097.54
-900500.23,-1584835.86,-994.83,-344.13,749.95,-1639786.55,-915709.7,-42054.89
-900546.1,-1584861.34,-1012.0,-361.56,758.8,-1639810.15,-915809.21,-41973.09
-900579.63,-1584885.21,-1018.43,-360.76,748.07,-1639831.88,-915834.42,-41986.5
-900597.86,-1584914.72,-1008.24,-343.59,734.93,-1639858.7,-915799.82,-42060.79
-900611.28,-1584941.54,-994.56,-308.99,741.36,-1639883.65,-915828.52,-42074.47
-900639.71,-1584968.63,-999.93,-324.82,757.19,-1639908.59,-915897.19,-42047.65
-900687.72,-1584997.33,-1020.58,-360.49,767.11,-1639934.88,-915944.66,-41945.73
-900719.37,-1585022.54,-1027.55,-333.4,751.56,-1639958.21,-915956.19,-41974.43
-900597.86,-1584914.72,-1008.24,-343.59,734.93,-1639858.7,-915799.82,-42060.79
-900611.28,-1584941.54,-994.56,-308.99,741.36,-1639883.65,-915828.52,-42074.47
-900639.71,-1584968.63,-999.93,-324.82,757.19,-1639908.59,-915897.19,-42047.65
-900687.72,-1584997.33,-1020.58,-360.49,767.11,-1639934.88,-915944.66,-41945.73
-900719.37,-1585022.54,-1027.55,-333.4,751.56,-1639958.21,-915956.19,-41974.43
-900719.37,-1585047.76,-1022.99,-328.3,731.71,-1639981.28,-915869.56,-42056.24
-900732.51,-1585073.24,-1004.49,-336.35,731.17,-1640005.15,-915784.53,-42075.82
-900784.81,-1585101.13,-1003.68,-345.2,751.56,-1640030.63,-915943.86,-41976.57
-900828.0,-1585127.69,-1019.78,-372.83,766.04,-1640054.77,-916026.2,-41920.78
-900855.36,-1585154.78,-1017.63,-370.68,748.34,-1640078.64,-916046.05,-41938.75

-900872.52,-1585180.26,-1001.54,-354.86,738.68,-1640102.51,-915989.45,-41999.1
-900900.95,-1585203.06,-988.13,-313.28,748.34,-1640123.7,-915959.95,-41994.54
-900936.63,-1585229.88,-992.95,-299.6,768.72,-1640148.92,-916083.6,-41915.15
-900979.01,-1585259.38,-1005.83,-326.42,771.67,-1640176.27,-916141.0,-41869.29
-901007.44,-1585287.28,-1012.27,-315.96,749.14,-1640202.29,-916144.49,-41923.2
-900872.52,-1585180.26,-1001.54,-354.86,738.68,-1640102.51,-915989.45,-41999.1
-900900.95,-1585203.06,-988.13,-313.28,748.34,-1640123.7,-915959.95,-41994.54
-900936.63,-1585229.88,-992.95,-299.6,768.72,-1640148.92,-916083.6,-41915.15
-900979.01,-1585259.38,-1005.83,-326.42,771.67,-1640176.27,-916141.0,-41869.29
-901007.44,-1585287.28,-1012.27,-315.96,749.14,-1640202.29,-916144.49,-41923.2
-901023.53,-1585311.42,-999.12,-291.56,731.97,-1640224.82,-916118.47,-41980.6
-901039.62,-1585336.9,-979.01,-274.93,737.07,-1640248.16,-916097.01,-41994.54
-901079.86,-1585364.53,-980.62,-286.73,758.8,-1640272.83,-916163.26,-41949.22
-901123.04,-1585391.88,-994.03,-312.48,768.72,-1640297.24,-916248.55,-41887.26
-901155.23,-1585418.71,-1007.71,-311.67,756.38,-1640321.92,-916224.95,-41908.98
-901023.53,-1585311.42,-999.12,-291.56,731.97,-1640224.82,-916118.47,-41980.6
-901039.62,-1585336.9,-979.01,-274.93,737.07,-1640248.16,-916097.01,-41994.54
-901079.86,-1585364.53,-980.62,-286.73,758.8,-1640272.83,-916163.26,-41949.22
-901123.04,-1585391.88,-994.03,-312.48,768.72,-1640297.24,-916248.55,-41887.26
-901155.23,-1585418.71,-1007.71,-311.67,756.38,-1640321.92,-916224.95,-41908.98
-901168.37,-1585443.11,-996.17,-298.26,738.41,-1640345.79,-916203.76,-41975.5
-901179.64,-1585468.86,-979.01,-274.66,741.9,-1640368.32,-916155.21,-42006.88
-901211.82,-1585494.08,-974.71,-277.88,757.99,-1640391.92,-916241.04,-41955.92
-901255.54,-1585519.56,-1003.68,-304.43,774.89,-1640415.53,-916331.17,-41865.26
-901286.39,-1585549.06,-1016.56,-324.82,766.31,-1640443.69,-916366.57,-41875.99
-901168.37,-1585443.11,-996.17,-298.26,738.41,-1640345.79,-916203.76,-41975.5
-901179.64,-1585468.86,-979.01,-274.66,741.9,-1640368.32,-916155.21,-42006.88
-901211.82,-1585494.08,-974.71,-277.88,757.99,-1640391.92,-916241.04,-41955.92
-901255.54,-1585519.56,-1003.68,-304.43,774.89,-1640415.53,-916331.17,-41865.26
-901286.39,-1585549.06,-1016.56,-324.82,766.31,-1640443.69,-916366.57,-41875.99
-901301.14,-1585574.01,-995.1,-290.48,743.24,-1640467.03,-916329.02,-41966.38
-901309.45,-1585599.22,-977.67,-285.39,749.14,-1640490.63,-916241.85,-42004.2
-901342.18,-1585627.38,-976.32,-300.68,767.11,-1640516.11,-916307.3,-41956.46
-901387.24,-1585655.55,-995.64,-320.26,773.55,-1640542.93,-916396.34,-41871.7
-901413.26,-1585678.61,-999.12,-321.33,757.99,-1640566.27,-916444.89,-41895.03
-901301.14,-1585574.01,-995.1,-290.48,743.24,-1640467.03,-916329.02,-41966.38
-901309.45,-1585599.22,-977.67,-285.39,749.14,-1640490.63,-916241.85,-42004.2
-901342.18,-1585627.38,-976.32,-300.68,767.11,-1640516.11,-916307.3,-41956.46
-901387.24,-1585655.55,-995.64,-320.26,773.55,-1640542.93,-916396.34,-41871.7
-901413.26,-1585678.61,-999.12,-321.33,757.99,-1640566.27,-916444.89,-41895.03
-901421.3,-1585703.56,-988.66,-307.11,748.07,-1640590.14,-916346.99,-41968.26
-901435.25,-1585730.38,-978.2,-291.29,752.63,-1640614.01,-916298.98,-41964.24
-901471.19,-1585757.47,-982.49,-311.67,773.28,-1640638.69,-916379.45,-41907.37
-901520.01,-1585784.83,-991.88,-329.11,776.5,-1640663.1,-916495.05,-41835.22
-901544.15,-1585809.77,-1001.81,-333.94,765.23,-1640686.43,-916509.27,-41854.53
-901421.3,-1585703.56,-988.66,-307.11,748.07,-1640590.14,-916346.99,-41968.26
-901435.25,-1585730.38,-978.2,-291.29,752.63,-1640614.01,-916298.98,-41964.24
-901471.19,-1585757.47,-982.49,-311.67,773.28,-1640638.69,-916379.45,-41907.37
-901520.01,-1585784.83,-991.88,-329.11,776.5,-1640663.1,-916495.05,-41835.22
-901544.15,-1585809.77,-1001.81,-333.94,765.23,-1640686.43,-916509.27,-41854.53
-901564.26,-1585834.45,-988.93,-296.65,759.87,-1640708.96,-916532.33,-41880.28
-901588.94,-1585862.08,-961.3,-267.95,771.67,-1640734.44,-916562.64,-41871.7
-901629.17,-1585891.31,-954.87,-262.86,799.57,-1640761.26,-916611.73,-41814.84
-901669.94,-1585920.28,-973.64,-277.34,806.27,-1640788.35,-916648.74,-41774.34
-901702.93,-1585947.64,-984.64,-251.05,794.74,-1640813.03,-916656.25,-41786.4
-901564.26,-1585834.45,-988.93,-296.65,759.87,-1640708.96,-916532.33,-41880.28
-901588.94,-1585862.08,-961.3,-267.95,771.67,-1640734.44,-916562.64,-41871.7
-901629.17,-1585891.31,-954.87,-262.86,799.57,-1640761.26,-916611.73,-41814.84
-901669.94,-1585920.28,-973.64,-277.34,806.27,-1640788.35,-916648.74,-41774.34
-901702.93,-1585947.64,-984.64,-251.05,794.74,-1640813.03,-916656.25,-41786.4
-901711.79,-1585972.05,-982.49,-252.66,775.96,-1640835.29,-916605.29,-41874.38
-901730.02,-1585999.4,-973.37,-237.38,779.72,-1640859.43,-916623.26,-41889.4
-901755.77,-1586026.49,-981.42,-233.62,797.69,-1640885.45,-916694.34,-41849.17
-901797.88,-1586054.66,-995.64,-218.33,801.44,-1640911.47,-916755.49,-41773.8
-901829.0,-1586081.75,-1000.2,-219.14,783.47,-1640936.41,-916782.31,-41786.4
-901711.79,-1585972.05,-982.49,-252.66,775.96,-1640835.29,-916605.29,-41874.38
-901730.02,-1585999.4,-973.37,-237.38,779.72,-1640859.43,-916623.26,-41889.4
-901755.77,-1586026.49,-981.42,-233.62,797.69,-1640885.45,-916694.34,-41849.17
-901797.88,-1586054.66,-995.64,-218.33,801.44,-1640911.47,-916755.49,-41773.8
-901829.0,-1586081.75,-1000.2,-219.14,783.47,-1640936.41,-916782.31,-41786.4
-901842.95,-1586106.69,-990.27,-215.11,770.87,-1640958.94,-916737.52,-41844.88
-901858.5,-1586134.59,-970.96,-203.58,781.86,-1640983.89,-916714.45,-41859.9
-901884.52,-1586158.19,-967.2,-195.26,808.15,-1641004.81,-916803.24,-41844.88
-901917.51,-1586186.09,-972.84,-212.16,813.51,-1641029.75,-916806.72,-41818.86
-901945.41,-1586218.0,-976.86,-212.16,801.98,-1641058.45,-916838.64,-41819.66
-901842.95,-1586106.69,-990.27,-215.11,770.87,-1640958.94,-916737.52,-41844.88
-901858.5,-1586134.59,-970.96,-203.58,781.86,-1640983.89,-916714.45,-41859.9
-901884.52,-1586158.19,-967.2,-195.26,808.15,-1641004.81,-916803.24,-41844.88
-901917.51,-1586186.09,-972.84,-212.16,813.51,-1641029.75,-916806.72,-41818.86
-901945.41,-1586218.0,-976.86,-212.16,801.98,-1641058.45,-916838.64,-41819.66

-902062.08,-1586381.89,-887.01,-135.18,897.47,-1641210.53,-916903.55,-41802.5
-902075.76,-1586407.91,-881.64,-116.94,895.86,-1641234.14,-916866.27,-41828.25
-902112.78,-1586434.46,-890.76,-125.53,906.05,-1641257.21,-916937.08,-41768.7
-902153.01,-1586460.48,-919.73,-119.36,908.2,-1641282.42,-916991.53,-41705.67
-902187.07,-1586486.23,-940.11,-109.43,868.23,-1641305.48,-917010.57,-41721.5
-902062.08,-1586381.89,-887.01,-135.18,897.47,-1641210.53,-916903.55,-41802.5
-902075.76,-1586407.91,-881.64,-116.94,895.86,-1641234.14,-916866.27,-41828.25
-902112.78,-1586434.46,-890.76,-125.53,906.05,-1641257.21,-916937.08,-41768.7
-902153.01,-1586460.48,-919.73,-119.36,908.2,-1641282.42,-916991.53,-41705.67
-902187.07,-1586486.23,-940.11,-109.43,868.23,-1641305.48,-917010.57,-41721.5
-902207.99,-1586509.56,-938.77,-118.29,851.33,-1641328.28,-917028.54,-41776.48
-902218.99,-1586536.11,-938.77,-118.02,858.04,-1641353.5,-917043.56,-41809.74
-902246.89,-1586561.06,-947.89,-147.52,869.57,-1641378.44,-917083.79,-41776.75
-902290.34,-1586586.0,-963.45,-154.23,862.06,-1641403.92,-917135.29,-41717.2
-902320.38,-1586612.56,-982.76,-178.1,846.51,-1641429.94,-917147.63,-41750.46
-902207.99,-1586509.56,-938.77,-118.29,851.33,-1641328.28,-917028.54,-41776.48
-902218.99,-1586536.11,-938.77,-118.02,858.04,-1641353.5,-917043.56,-41809.74
-902246.89,-1586561.06,-947.89,-147.52,869.57,-1641378.44,-917083.79,-41776.75
-902290.34,-1586586.0,-963.45,-154.23,862.06,-1641403.92,-917135.29,-41717.2
-902320.38,-1586612.56,-982.76,-178.1,846.51,-1641429.94,-917147.63,-41750.46
-902337.81,-1586638.31,-973.37,-183.46,829.88,-1641454.08,-917129.12,-41799.28
-902353.37,-1586662.71,-963.99,-178.37,839.26,-1641477.15,-917132.88,-41817.52
-902386.09,-1586688.46,-963.45,-180.78,862.6,-1641500.75,-917223.54,-41744.03
-902423.64,-1586713.95,-969.62,-199.82,862.06,-1641525.16,-917247.95,-41704.6
-902449.13,-1586738.89,-984.1,-219.94,837.12,-1641550.37,-917228.9,-41718.55
-902337.81,-1586638.31,-973.37,-183.46,829.88,-1641454.08,-917129.12,-41799.28
-902353.37,-1586662.71,-963.99,-178.37,839.26,-1641477.15,-917132.88,-41817.52
-902386.09,-1586688.46,-963.45,-180.78,862.6,-1641500.75,-917223.54,-41744.03
-902423.64,-1586713.95,-969.62,-199.82,862.06,-1641525.16,-917247.95,-41704.6
-902449.13,-1586738.89,-984.1,-219.94,837.12,-1641550.37,-917228.9,-41718.55
-902459.85,-1586762.76,-982.49,-211.63,819.15,-1641574.24,-917236.14,-41780.77
-902476.48,-1586785.29,-962.11,-192.85,817.0,-1641595.43,-917257.07,-41780.77
-902510.82,-1586808.63,-963.72,-188.83,828.53,-1641618.23,-917314.73,-41756.9
-902544.61,-1586835.72,-984.1,-231.21,837.39,-1641643.17,-917302.13,-41711.3
-902584.04,-1586860.66,-1003.95,-253.2,821.83,-1641669.46,-917387.96,-41706.48
-902459.85,-1586762.76,-982.49,-211.63,819.15,-1641574.24,-917236.14,-41780.77
-902476.48,-1586785.29,-962.11,-192.85,817.0,-1641595.43,-917257.07,-41780.77
-902510.82,-1586808.63,-963.72,-188.83,828.53,-1641618.23,-917314.73,-41756.9
-902544.61,-1586835.72,-984.1,-231.21,837.39,-1641643.17,-917302.13,-41711.3
-902584.04,-1586860.66,-1003.95,-253.2,821.83,-1641669.46,-917387.96,-41706.48
-902600.67,-1586885.07,-999.39,-232.01,815.39,-1641694.94,-917400.83,-41759.31
-902614.08,-1586909.48,-989.47,-225.31,816.46,-1641718.28,-917347.99,-41772.46
-902646.8,-1586935.76,-993.76,-224.77,825.05,-1641742.68,-917403.51,-41720.96
-902686.5,-1586963.39,-1018.7,-222.36,826.66,-1641767.9,-917478.62,-41653.1
-902716.81,-1586987.53,-1025.68,-250.52,807.61,-1641790.96,-917506.51,-41674.56
-902600.67,-1586885.07,-999.39,-232.01,815.39,-1641694.94,-917400.83,-41759.31
-902614.08,-1586909.48,-989.47,-225.31,816.46,-1641718.28,-917347.99,-41772.46
-902646.8,-1586935.76,-993.76,-224.77,825.05,-1641742.68,-917403.51,-41720.96
-902686.5,-1586963.39,-1018.7,-222.36,826.66,-1641767.9,-917478.62,-41653.1
-902716.81,-1586987.53,-1025.68,-250.52,807.61,-1641790.96,-917506.51,-41674.56
-902727.54,-1587011.13,-1008.24,-255.08,787.76,-1641813.23,-917477.27,-41729.01
-902740.68,-1587035.54,-990.27,-240.86,793.4,-1641837.37,-917436.77,-41746.44
-902776.62,-1587062.63,-999.66,-235.23,814.05,-1641861.78,-917540.04,-41686.09
-902816.86,-1587087.31,-1008.51,-247.03,816.2,-1641884.57,-917599.05,-41635.93
-902843.95,-1587111.18,-1014.14,-244.08,797.96,-1641907.37,-917615.68,-41656.05
-902727.54,-1587011.13,-1008.24,-255.08,787.76,-1641813.23,-917477.27,-41729.01
-902740.68,-1587035.54,-990.27,-240.86,793.4,-1641837.37,-917436.77,-41746.44
-902776.62,-1587062.63,-999.66,-235.23,814.05,-1641861.78,-917540.04,-41686.09
-902816.86,-1587087.31,-1008.51,-247.03,816.2,-1641884.57,-917599.05,-41635.93
-902843.95,-1587111.18,-1014.14,-244.08,797.96,-1641907.37,-917615.68,-41656.05
-902862.99,-1587135.59,-1000.46,-236.57,788.03,-1641931.51,-917575.18,-41688.24
-902883.11,-1587161.07,-981.15,-219.4,797.42,-1641955.65,-917607.09,-41696.82
-902916.9,-1587185.75,-977.4,-232.28,824.24,-1641979.26,-917677.9,-41684.75
-902954.19,-1587211.23,-984.1,-258.03,830.95,-1642003.93,-917729.13,-41641.57
-902979.93,-1587236.17,-981.69,-236.57,817.0,-1642027.54,-917690.51,-41649.08
-902862.99,-1587135.59,-1000.46,-236.57,788.03,-1641931.51,-917575.18,-41688.24
-902883.11,-1587161.07,-981.15,-219.4,797.42,-1641955.65,-917607.09,-41696.82
-902916.9,-1587185.75,-977.4,-232.28,824.24,-1641979.26,-917677.9,-41684.75
-902954.19,-1587211.23,-984.1,-258.03,830.95,-1642003.93,-917729.13,-41641.57
-902979.93,-1587236.17,-981.69,-236.57,817.0,-1642027.54,-917690.51,-41649.08
-902995.22,-1587259.24,-980.08,-241.13,803.32,-1642048.99,-917632.84,-41713.99
-903014.53,-1587283.91,-971.23,-230.94,806.27,-1642071.26,-917691.58,-41734.91
-903036.8,-1587309.66,-981.69,-246.5,825.58,-1642096.47,-917771.25,-41704.06
-903073.54,-1587334.07,-995.1,-247.57,827.46,-1642119.8,-917802.36,-41648.54
-903099.56,-1587359.82,-1010.39,-274.12,817.27,-1642142.33,-917818.18,-41672.95
-902995.22,-1587259.24,-980.08,-241.13,803.32,-1642048.99,-917632.84,-41713.99
-903014.53,-1587283.91,-971.23,-230.94,806.27,-1642071.26,-917691.58,-41734.91
-903036.8,-1587309.66,-981.69,-246.5,825.58,-1642096.47,-917771.25,-41704.06
-903073.54,-1587334.07,-995.1,-247.57,827.46,-1642119.8,-917802.36,-41648.54
-903099.56,-1587359.82,-1010.39,-274.12,817.27,-1642142.33,-917818.18,-41672.95
-903122.36,-1587382.08,-997.78,-249.98,803.59,-1642162.45,-917876.66,-41708.89
-903133.36,-1587404.61,-980.08,-221.28,813.51,-1642182.57,-917879.07,-41726.86
-903159.37,-1587430.63,-981.69,-219.67,830.95,-1642204.56,-917865.12,-41697.62
-903194.78,-1587457.99,-1001.54,-242.74,829.61,-1642230.58,-917879.87,-41657.66
-903231.79,-1587483.47,-1014.68,-241.94,805.74,-1642254.18,-917968.39,-41638.35
-903122.36,-1587382.08,-997.78,-249.98,803.59,-1642162.45,-917876.66,-41708.89
-903133.36,-1587404.61,-980.08,-221.28,813.51,-1642182.57,-917879.07,-41726.86
-903159.37,-1587430.63,-981.69,-219.67,830.95,-1642204.56,-917865.12,-41697.62
-903194.78,-1587457.99,-1001.54,-242.74,829.61,-1642230.58,-917879.87,-41657.66
-903231.79,-1587483.47,-1014.68,-241.94,805.74,-1642254.18,-917968.39,-41638.35
-903250.3,-1587508.42,-1011.73,-229.6,789.91,-1642276.98,-917959.27,-41696.28
-903269.34,-1587532.82,-995.64,-232.55,790.98,-1642299.78,-917964.9,-41719.08
-903296.97,-1587557.23,-995.1,-249.18,809.76,-1642321.51,-917951.49,-41682.6
-903340.42,-1587581.37,-1009.58,-268.76,817.0,-1642343.5,-918054.22,-41611.79
-903374.22,-1587604.71,-1016.56,-268.76,804.93,-1642364.69,-918090.16,-41627.62
-903250.3,-1587508.42,-1011.73,-229.6,789.91,-1642276.98,-917959.27,-41696.28
-903269.34,-1587532.82,-995.64,-232.55,790.98,-1642299.78,-917964.9,-41719.08
-903296.97,-1587557.23,-995.1,-249.18,809.76,-1642321.51,-917951.49,-41682.6
-903340.42,-1587581.37,-1009.58,-268.76,817.0,-1642343.5,-918054.22,-41611.79
-903374.22,-1587604.71,-1016.56,-268.76,804.93,-1642364.69,-918090.16,-41627.62
-903389.24,-1587628.04,-1011.19,-251.86,792.59,-1642385.61,-918089.36,-41682.07
-903404.26,-1587653.25,-990.81,-241.13,792.86,-1642408.95,-918054.22,-41706.74
-903434.03,-1587677.93,-993.22,-256.69,812.71,-1642430.4,-918122.61,-41653.37
-903469.71,-1587699.12,-995.64,-245.15,818.07,-1642449.18,-918172.24,-41600.8
-903501.36,-1587724.07,-1003.68,-259.91,797.15,-1642473.32,-918190.47,-41601.6
-903389.24,-1587628.04,-1011.19,-251.86,792.59,-1642385.61,-918089.36,-41682.07
-903404.26,-1587653.25,-990.81,-241.13,792.86,-1642408.95,-918054.22,-41706.74
-903434.03,-1587677.93,-993.22,-256.69,812.71,-1642430.4,-918122.61,-41653.37
-903469.71,-1587699.12,-995.64,-245.15,818.07,-1642449.18,-918172.24,-41600.8
-903501.36,-1587724.07,-1003.68,-259.91,797.15,-1642473.32,-918190.47,-41601.6
-903507.79,-1587750.89,-993.22,-258.3,780.25,-1642499.07,-918117.52,-41680.73
-903528.71,-1587774.22,-980.88,-255.35,790.18,-1642521.06,-918181.62,-41687.43
-903564.39,-1587797.29,-984.64,-243.81,815.12,-1642542.25,-918267.19,-41635.93
-903601.4,-1587821.97,-1000.73,-253.2,819.41,-1642564.78,-918299.91,-41592.75
-903622.06,-1587846.37,-1007.97,-257.22,804.66,-1642587.31,-918267.99,-41618.77
-903507.79,-1587750.89,-993.22,-258.3,780.25,-1642499.07,-918117.52,-41680.73
-903528.71,-1587774.22,-980.88,-255.35,790.18,-1642521.06,-918181.62,-41687.43
-903564.39,-1587797.29,-984.64,-243.81,815.12,-1642542.25,-918267.19,-41635.93
-903601.4,-1587821.97,-1000.73,-253.2,819.41,-1642564.78,-918299.91,-41592.75
-903622.06,-1587846.37,-1007.97,-257.22,804.66,-1642587.31,-918267.99,-41618.77
-903640.03,-1587868.64,-1001.0,-249.98,797.42,-1642608.5,-918317.61,-41649.34
-903655.85,-1587891.97,-977.4,-239.52,803.86,-1642629.16,-918331.83,-41643.44
-903680.26,-1587916.65,-971.5,-261.78,826.39,-1642651.95,-918360.26,-41619.04
-903714.32,-1587940.79,-980.35,-276.27,827.19,-1642674.22,-918385.47,-41587.92
-903750.8,-1587966.27,-996.98,-283.78,815.93,-1642697.28,-918424.9,-41575.32
-903640.03,-1587868.64,-1001.0,-249.98,797.42,-1642608.5,-918317.61,-41649.34
-903655.85,-1587891.97,-977.4,-239.52,803.86,-1642629.16,-918331.83,-41643.44
-903680.26,-1587916.65,-971.5,-261.78,826.39,-1642651.95,-918360.26,-41619.04
-903714.32,-1587940.79,-980.35,-276.27,827.19,-1642674.22,-918385.47,-41587.92
-903750.8,-1587966.27,-996.98,-283.78,815.93,-1642697.28,-918424.9,-41575.32
-903776.28,-1587987.73,-974.45,-242.74,796.88,-1642714.99,-918446.36,-41608.31
-903789.96,-1588011.33,-956.74,-237.91,815.39,-1642736.44,-918430.53,-41632.71
-903811.15,-1588040.83,-960.23,-249.98,834.7,-1642761.66,-918450.92,-41623.59
-903852.46,-1588072.48,-981.96,-270.63,844.09,-1642790.36,-918486.32,-41578.0
-903889.47,-1588095.55,-991.88,-271.17,829.61,-1642812.89,-918560.62,-41573.44
-903776.28,-1587987.73,-974.45,-242.74,796.88,-1642714.99,-918446.36,-41608.31
-903789.96,-1588011.33,-956.74,-237.91,815.39,-1642736.44,-918430.53,-41632.71
-903811.15,-1588040.83,-960.23,-249.98,834.7,-1642761.66,-918450.92,-41623.59
-903852.46,-1588072.48,-981.96,-270.63,844.09,-1642790.36,-918486.32,-41578.0
-903889.47,-1588095.55,-991.88,-271.17,829.61,-1642812.89,-918560.62,-41573.44
-903903.96,-1588119.69,-986.52,-264.73,820.49,-1642837.29,-918528.97,-41635.66
-903910.39,-1588144.9,-974.98,-257.76,817.0,-1642861.7,-918492.22,-41655.24
-903939.09,-1588171.46,-979.54,-255.35,829.34,-1642887.18,-918541.58,-41585.51
-903982.28,-1588196.94,-988.66,-278.15,830.68,-1642909.45,-918637.06,-41529.72
-904003.73,-1588221.61,-999.12,-300.68,822.63,-1642931.98,-918662.54,-41570.22
-903903.96,-1588119.69,-986.52,-264.73,820.49,-1642837.29,-918528.97,-41635.66
-903910.39,-1588144.9,-974.98,-257.76,817.0,-1642861.7,-918492.22,-41655.24
-903939.09,-1588171.46,-979.54,-255.35,829.34,-1642887.18,-918541.58,-41585.51
-903982.28,-1588196.94,-988.66,-278.15,830.68,-1642909.45,-918637.06,-41529.72
-904003.73,-1588221.61,-999.12,-300.68,822.63,-1642931.98,-918662.54,-41570.22
-904011.78,-1588243.61,-997.78,-283.51,812.98,-1642955.04,-918637.06,-41631.11
-904018.22,-1588262.12,-987.05,-269.83,814.86,-1642979.18,-918617.48,-41653.1
-904046.11,-1588292.69,-990.27,-284.85,826.39,-1643001.45,-918701.44,-41606.16
-904089.83,-1588318.17,-1004.76,-287.53,831.75,-1643024.51,-918757.76,-41547.69
-904124.16,-1588343.92,-1006.9,-278.95,818.88,-1643049.73,-918779.76,-41530.52
-904011.78,-1588243.61,-997.78,-283.51,812.98,-1642955.04,-918637.06,-41631.11
-904018.22,-1588262.12,-987.05,-269.83,814.86,-1642979.18,-918617.48,-41653.1
-904046.11,-1588292.69,-990.27,-284.85,826.39,-1643001.45,-918701.44,-41606.16
-904089.83,-1588318.17,-1004.76,-287.53,831.75,-1643024.51,-918757.76,-41547.69
-904124.16,-1588343.92,-1006.9,-278.95,818.88,-1643049.73,-918779.76,-41530.52

-904271.69,-1588488.23,-999.12,-269.29,813.51,-1643186.25,-918863.17,-41561.64
-904288.05,-1588511.83,-979.01,-260.71,821.29,-1643208.51,-918866.12,-41578.0
-904318.36,-1588537.04,-978.74,-275.73,828.53,-1643230.51,-918926.2,-41553.86
-904341.42,-1588561.72,-992.42,-298.53,827.19,-1643251.96,-918912.53,-41540.18
-904374.41,-1588585.59,-1007.44,-285.92,820.22,-1643273.42,-918975.02,-41509.87
-904271.69,-1588488.23,-999.12,-269.29,813.51,-1643186.25,-918863.17,-41561.64
-904288.05,-1588511.83,-979.01,-260.71,821.29,-1643208.51,-918866.12,-41578.0
-904318.36,-1588537.04,-978.74,-275.73,828.53,-1643230.51,-918926.2,-41553.86
-904341.42,-1588561.72,-992.42,-298.53,827.19,-1643251.96,-918912.53,-41540.18
-904374.41,-1588585.59,-1007.44,-285.92,820.22,-1643273.42,-918975.02,-41509.87
-904395.87,-1588607.05,-997.78,-248.64,810.3,-1643293.27,-918968.85,-41523.82
-904413.31,-1588632.53,-992.95,-260.17,819.15,-1643316.87,-918919.77,-41562.71
-904436.64,-1588658.28,-998.05,-260.71,825.58,-1643339.14,-918958.39,-41560.56
-904473.66,-1588683.22,-1020.58,-275.19,830.95,-1643361.93,-919041.27,-41507.99
-904510.13,-1588706.02,-1020.58,-265.54,812.98,-1643383.39,-919099.74,-41488.41
-904395.87,-1588607.05,-997.78,-248.64,810.3,-1643293.27,-918968.85,-41523.82
-904413.31,-1588632.53,-992.95,-260.17,819.15,-1643316.87,-918919.77,-41562.71
-904436.64,-1588658.28,-998.05,-260.71,825.58,-1643339.14,-918958.39,-41560.56
-904473.66,-1588683.22,-1020.58,-275.19,830.95,-1643361.93,-919041.27,-41507.99
-904510.13,-1588706.02,-1020.58,-265.54,812.98,-1643383.39,-919099.74,-41488.41
-904527.3,-1588729.36,-1006.9,-261.52,793.13,-1643404.85,-919115.3,-41546.62
-904538.83,-1588745.45,-990.81,-258.03,796.62,-1643425.5,-919067.02,-41588.19
-904566.19,-1588767.44,-992.15,-277.34,809.22,-1643447.77,-919119.59,-41543.93
-904608.57,-1588797.22,-1005.83,-297.99,817.81,-1643470.56,-919196.84,-41473.93
-904635.93,-1588820.02,-1016.56,-281.63,807.61,-1643491.49,-919219.1,-41471.78
-904527.3,-1588729.36,-1006.9,-261.52,793.13,-1643404.85,-919115.3,-41546.62
-904538.83,-1588745.45,-990.81,-258.03,796.62,-1643425.5,-919067.02,-41588.19
-904566.19,-1588767.44,-992.15,-277.34,809.22,-1643447.77,-919119.59,-41543.93
-904608.57,-1588797.22,-1005.83,-297.99,817.81,-1643470.56,-919196.84,-41473.93
-904635.93,-1588820.02,-1016.56,-281.63,807.61,-1643491.49,-919219.1,-41471.78
-904648.54,-1588831.01,-1006.36,-271.44,791.25,-1643510.8,-919195.5,-41543.13
-904664.9,-1588841.21,-991.34,-252.93,795.54,-1643529.84,-919132.73,-41566.46
-904706.74,-1588876.34,-991.61,-239.25,812.44,-1643549.69,-919263.09,-41492.97
-904743.76,-1588900.75,-1007.17,-240.86,815.66,-1643571.15,-919314.32,-41465.08
-904771.92,-1588924.35,-1016.56,-235.23,800.64,-1643593.95,-919306.81,-41476.88
-904648.54,-1588831.01,-1006.36,-271.44,791.25,-1643510.8,-919195.5,-41543.13
-904664.9,-1588841.21,-991.34,-252.93,795.54,-1643529.84,-919132.73,-41566.46
-904706.74,-1588876.34,-991.61,-239.25,812.44,-1643549.69,-919263.09,-41492.97
-904743.76,-1588900.75,-1007.17,-240.86,815.66,-1643571.15,-919314.32,-41465.08
-904771.92,-1588924.35,-1016.56,-235.23,800.64,-1643593.95,-919306.81,-41476.88
-904781.31,-1588947.69,-1017.09,-249.71,791.52,-1643615.94,-919240.29,-41534.01
-904799.55,-1588969.41,-1012.27,-235.23,798.49,-1643634.98,-919339.8,-41542.32
-904832.0,-1588993.02,-1014.95,-235.5,809.49,-1643656.71,-919391.03,-41496.46
-904871.16,-1589017.69,-1027.29,-254.54,810.3,-1643678.44,-919418.39,-41473.93
-904899.32,-1589043.71,-1029.16,-279.75,800.1,-1643699.36,-919401.22,-41484.39
-904781.31,-1588947.69,-1017.09,-249.71,791.52,-1643615.94,-919240.29,-41534.01
-904799.55,-1588969.41,-1012.27,-235.23,798.49,-1643634.98,-919339.8,-41542.32
-904832.0,-1588993.02,-1014.95,-235.5,809.49,-1643656.71,-919391.03,-41496.46
-904871.16,-1589017.69,-1027.29,-254.54,810.3,-1643678.44,-919418.39,-41473.93
-904899.32,-1589043.71,-1029.16,-279.75,800.1,-1643699.36,-919401.22,-41484.39
-904923.46,-1589067.85,-1020.04,-264.47,793.13,-1643719.47,-919424.29,-41507.46
-904942.24,-1589092.26,-1006.1,-242.74,792.32,-1643740.39,-919458.62,-41526.77
-904975.77,-1589119.35,-1008.24,-259.91,805.2,-1643762.92,-919516.83,-41488.95
-905006.61,-1589145.1,-1025.95,-274.66,814.32,-1643784.65,-919510.66,-41465.61
-905041.48,-1589167.09,-1039.36,-254.81,802.52,-1643802.09,-919569.67,-41438.25
-904923.46,-1589067.85,-1020.04,-264.47,793.13,-1643719.47,-919424.29,-41507.46
-904942.24,-1589092.26,-1006.1,-242.74,792.32,-1643740.39,-919458.62,-41526.77
-904975.77,-1589119.35,-1008.24,-259.91,805.2,-1643762.92,-919516.83,-41488.95
-905006.61,-1589145.1,-1025.95,-274.66,814.32,-1643784.65,-919510.66,-41465.61
-905041.48,-1589167.09,-1039.36,-254.81,802.52,-1643802.09,-919569.67,-41438.25
-905073.94,-1589193.65,-1029.7,-229.06,783.21,-1643823.54,-919590.59,-41475.0
-905095.93,-1589220.47,-1013.07,-240.33,779.99,-1643847.41,-919606.68,-41520.06
-905114.97,-1589245.95,-1019.78,-266.88,798.76,-1643869.14,-919603.46,-41491.63
-905157.89,-1589273.31,-1041.77,-308.45,801.71,-1643892.21,-919667.3,-41423.23
-905192.76,-1589299.86,-1044.45,-321.6,784.55,-1643915.27,-919712.63,-41417.87
-905073.94,-1589193.65,-1029.7,-229.06,783.21,-1643823.54,-919590.59,-41475.0
-905095.93,-1589220.47,-1013.07,-240.33,779.99,-1643847.41,-919606.68,-41520.06
-905114.97,-1589245.95,-1019.78,-266.88,798.76,-1643869.14,-919603.46,-41491.63
-905157.89,-1589273.31,-1041.77,-308.45,801.71,-1643892.21,-919667.3,-41423.23
-905192.76,-1589299.86,-1044.45,-321.6,784.55,-1643915.27,-919712.63,-41417.87
-905221.19,-1589324.0,-1035.06,-295.58,777.57,-1643936.73,-919721.48,-41458.91
-905235.4,-1589347.61,-1020.31,-277.34,782.67,-1643958.73,-919675.88,-41495.12
-905268.4,-1589373.89,-1027.29,-308.19,804.13,-1643980.72,-919746.16,-41462.13
-905311.58,-1589399.91,-1043.38,-337.96,806.81,-1644004.32,-919813.21,-41411.97
-905348.06,-1589425.39,-1047.13,-333.4,805.74,-1644026.85,-919845.13,-41417.06
-905221.19,-1589324.0,-1035.06,-295.58,777.57,-1643936.73,-919721.48,-41458.91
-905235.4,-1589347.61,-1020.31,-277.34,782.67,-1643958.73,-919675.88,-41495.12
-905268.4,-1589373.89,-1027.29,-308.19,804.13,-1643980.72,-919746.16,-41462.13
-905311.58,-1589399.91,-1043.38,-337.96,806.81,-1644004.32,-919813.21,-41411.97
-905348.06,-1589425.39,-1047.13,-333.4,805.74,-1644026.85,-919845.13,-41417.06
-905368.71,-1589433.97,-1029.43,-283.24,790.72,-1644047.24,-919803.02,-41464.54
-905392.05,-1589454.89,-1009.05,-270.1,792.59,-1644067.36,-919828.5,-41477.41
-905427.18,-1589490.57,-1008.51,-258.3,807.61,-1644089.35,-919906.55,-41437.45
-905464.73,-1589517.12,-1032.11,-235.5,800.64,-1644112.15,-919934.18,-41374.95
-905492.63,-1589542.87,-1044.45,-252.93,765.23,-1644136.29,-919923.18,-41412.5
-905368.71,-1589433.97,-1029.43,-283.24,790.72,-1644047.24,-919803.02,-41464.54
-905392.05,-1589454.89,-1009.05,-270.1,792.59,-1644067.36,-919828.5,-41477.41
-905427.18,-1589490.57,-1008.51,-258.3,807.61,-1644089.35,-919906.55,-41437.45
-905464.73,-1589517.12,-1032.11,-235.5,800.64,-1644112.15,-919934.18,-41374.95
-905492.63,-1589542.87,-1044.45,-252.93,765.23,-1644136.29,-919923.18,-41412.5
-905511.67,-1589567.82,-1043.11,-267.42,754.51,-1644159.89,-919908.7,-41470.71
-905534.2,-1589592.76,-1031.85,-241.94,757.46,-1644181.62,-919978.17,-41472.85
-905569.88,-1589617.97,-1034.26,-238.18,779.18,-1644204.15,-920016.25,-41417.06
-905608.23,-1589641.58,-1039.36,-270.9,780.79,-1644225.61,-920051.39,-41382.2
-905632.91,-1589665.98,-1037.75,-286.19,771.67,-1644247.6,-920052.46,-41409.29
-905511.67,-1589567.82,-1043.11,-267.42,754.51,-1644159.89,-919908.7,-41470.71
-905534.2,-1589592.76,-1031.85,-241.94,757.46,-1644181.62,-919978.17,-41472.85
-905569.88,-1589617.97,-1034.26,-238.18,779.18,-1644204.15,-920016.25,-41417.06
-905608.23,-1589641.58,-1039.36,-270.9,780.79,-1644225.61,-920051.39,-41382.2
-905632.91,-1589665.98,-1037.75,-286.19,771.67,-1644247.6,-920052.46,-41409.29
-905651.95,-1589690.12,-1034.53,-278.68,761.21,-1644268.52,-920093.5,-41436.64
-905673.14,-1589715.07,-1014.68,-258.83,763.09,-1644290.78,-920107.99,-41445.23
-905701.04,-1589740.01,-1017.9,-274.66,777.84,-1644312.24,-920120.86,-41433.16
-905731.34,-1589762.81,-1042.57,-293.43,791.52,-1644332.36,-920130.25,-41391.85
-905767.29,-1589785.61,-1065.91,-276.0,772.74,-1644352.47,-920208.3,-41365.57
-905651.95,-1589690.12,-1034.53,-278.68,761.21,-1644268.52,-920093.5,-41436.64
-905673.14,-1589715.07,-1014.68,-258.83,763.09,-1644290.78,-920107.99,-41445.23
-905701.04,-1589740.01,-1017.9,-274.66,777.84,-1644312.24,-920120.86,-41433.16
-905731.34,-1589762.81,-1042.57,-293.43,791.52,-1644332.36,-920130.25,-41391.85
-905767.29,-1589785.61,-1065.91,-276.0,772.74,-1644352.47,-920208.3,-41365.57
-905788.48,-1589812.7,-1060.01,-286.73,748.07,-1644375.27,-920236.2,-41426.45
-905807.52,-1589835.23,-1050.62,-266.88,753.43,-1644395.93,-920204.81,-41453.01
-905842.92,-1589851.06,-1053.3,-280.29,758.53,-1644418.73,-920218.76,-41415.19
-905882.89,-1589883.51,-1079.86,-296.38,764.43,-1644440.72,-920300.3,-41345.99
-905914.81,-1589909.26,-1093.8,-296.92,749.14,-1644462.18,-920330.07,-41336.6
-905788.48,-1589812.7,-1060.01,-286.73,748.07,-1644375.27,-920236.2,-41426.45
-905807.52,-1589835.23,-1050.62,-266.88,753.43,-1644395.93,-920204.81,-41453.01
-905842.92,-1589851.06,-1053.3,-280.29,758.53,-1644418.73,-920218.76,-41415.19
-905882.89,-1589883.51,-1079.86,-296.38,764.43,-1644440.72,-920300.3,-41345.99
-905914.81,-1589909.26,-1093.8,-296.92,749.14,-1644462.18,-920330.07,-41336.6
-905926.61,-1589930.99,-1078.78,-307.92,724.73,-1644481.76,-920329.54,-41415.19
-905933.05,-1589956.74,-1061.35,-303.36,733.05,-1644502.41,-920281.79,-41460.52
-905976.77,-1589981.95,-1074.22,-330.45,753.16,-1644524.14,-920380.77,-41385.41
-906018.61,-1590005.55,-1085.49,-359.42,762.55,-1644545.59,-920432.0,-41321.31
-906050.8,-1590030.23,-1093.54,-370.95,746.73,-1644567.59,-920459.62,-41343.57
-905926.61,-1589930.99,-1078.78,-307.92,724.73,-1644481.76,-920329.54,-41415.19
-905933.05,-1589956.74,-1061.35,-303.36,733.05,-1644502.41,-920281.79,-41460.52
-905976.77,-1589981.95,-1074.22,-330.45,753.16,-1644524.14,-920380.77,-41385.41
-906018.61,-1590005.55,-1085.49,-359.42,762.55,-1644545.59,-920432.0,-41321.31
-906050.8,-1590030.23,-1093.54,-370.95,746.73,-1644567.59,-920459.62,-41343.57
-906064.74,-1590033.72,-1075.3,-345.74,725.27,-1644586.36,-920399.81,-41410.9
-906094.25,-1590062.95,-1055.99,-327.77,736.0,-1644604.33,-920414.03,-41391.58
-906126.97,-1590095.14,-1064.3,-324.01,763.09,-1644626.06,-920493.42,-41356.72
-906168.01,-1590122.76,-1086.03,-331.25,768.72,-1644652.08,-920551.35,-41303.07
-906193.76,-1590147.17,-1084.69,-339.03,733.05,-1644676.22,-920514.07,-41329.36
-906064.74,-1590033.72,-1075.3,-345.74,725.27,-1644586.36,-920399.81,-41410.9
-906094.25,-1590062.95,-1055.99,-327.77,736.0,-1644604.33,-920414.03,-41391.58
-906126.97,-1590095.14,-1064.3,-324.01,763.09,-1644626.06,-920493.42,-41356.72
-906168.01,-1590122.76,-1086.03,-331.25,768.72,-1644652.08,-920551.35,-41303.07
-906193.76,-1590147.17,-1084.69,-339.03,733.05,-1644676.22,-920514.07,-41329.36
-906219.24,-1590170.24,-1068.06,-324.82,716.95,-1644697.14,-920556.45,-41364.23
-906241.77,-1590192.5,-1041.5,-285.12,718.56,-1644716.45,-920609.29,-41364.23
-906276.91,-1590215.84,-1042.04,-308.19,743.51,-1644737.91,-920633.16,-41325.33
-906306.95,-1590238.64,-1062.69,-318.11,753.97,-1644759.37,-920634.77,-41313.8
-906337.79,-1590263.85,-1085.22,-360.76,735.46,-1644781.09,-920657.3,-41325.33
-906219.24,-1590170.24,-1068.06,-324.82,716.95,-1644697.14,-920556.45,-41364.23
-906241.77,-1590192.5,-1041.5,-285.12,718.56,-1644716.45,-920609.29,-41364.23
-906276.91,-1590215.84,-1042.04,-308.19,743.51,-1644737.91,-920633.16,-41325.33
-906306.95,-1590238.64,-1062.69,-318.11,753.97,-1644759.37,-920634.77,-41313.8
-906337.79,-1590263.85,-1085.22,-360.76,735.46,-1644781.09,-920657.3,-41325.33
-906366.76,-1590285.57,-1073.15,-335.01,718.83,-1644801.74,-920717.38,-41362.88
-906378.83,-1590308.37,-1060.28,-307.11,733.32,-1644820.25,-920681.71,-41398.29
-906401.9,-1590331.17,-1055.99,-303.09,745.92,-1644839.83,-920705.05,-41357.25
-906438.91,-1590356.65,-1086.03,-339.3,746.46,-1644861.02,-920732.67,-41298.51
-906479.95,-1590379.99,-1098.36,-348.15,719.1,-1644882.48,-920812.87,-41265.79
-906366.76,-1590285.57,-1073.15,-335.01,718.83,-1644801.74,-920717.38,-41362.88
-906378.83,-1590308.37,-1060.28,-307.11,733.32,-1644820.25,-920681.71,-41398.29
-906401.9,-1590331.17,-1055.99,-303.09,745.92,-1644839.83,-920705.05,-41357.25
-906438.91,-1590356.65,-1086.03,-339.3,746.46,-1644861.02,-920732.67,-41298.51
-906479.95,-1590379.99,-1098.36,-348.15,719.1,-1644882.48,-920812.87,-41265.79

-906639.27,-1590518.39,-1072.08,-307.65,708.37,-1645003.98,-920935.72,-41317.55
-906644.37,-1590531.8,-1054.38,-313.01,722.05,-1645022.49,-920823.87,-41383.27
-906686.48,-1590561.31,-1061.89,-308.45,741.9,-1645041.8,-920957.17,-41288.32
-906727.79,-1590585.18,-1080.13,-333.13,745.39,-1645063.26,-921020.74,-41237.36
-906759.44,-1590606.9,-1090.59,-318.11,720.44,-1645082.57,-921038.98,-41240.84
-906639.27,-1590518.39,-1072.08,-307.65,708.37,-1645003.98,-920935.72,-41317.55
-906644.37,-1590531.8,-1054.38,-313.01,722.05,-1645022.49,-920823.87,-41383.27
-906686.48,-1590561.31,-1061.89,-308.45,741.9,-1645041.8,-920957.17,-41288.32
-906727.79,-1590585.18,-1080.13,-333.13,745.39,-1645063.26,-921020.74,-41237.36
-906759.44,-1590606.9,-1090.59,-318.11,720.44,-1645082.57,-921038.98,-41240.84
-906770.97,-1590624.87,-1071.54,-306.31,704.62,-1645099.47,-920970.85,-41302.27
-906788.67,-1590647.14,-1049.28,-307.11,716.42,-1645120.12,-921016.99,-41318.36
-906826.76,-1590673.96,-1051.16,-305.77,741.63,-1645143.46,-921100.13,-41278.39
-906865.11,-1590696.49,-1081.2,-316.77,747.8,-1645164.92,-921136.61,-41226.36
-906890.06,-1590709.9,-1084.69,-324.55,725.0,-1645186.37,-921112.2,-41244.06
-906770.97,-1590624.87,-1071.54,-306.31,704.62,-1645099.47,-920970.85,-41302.27
-906788.67,-1590647.14,-1049.28,-307.11,716.42,-1645120.12,-921016.99,-41318.36
-906826.76,-1590673.96,-1051.16,-305.77,741.63,-1645143.46,-921100.13,-41278.39
-906865.11,-1590696.49,-1081.2,-316.77,747.8,-1645164.92,-921136.61,-41226.36
-906890.06,-1590709.9,-1084.69,-324.55,725.0,-1645186.37,-921112.2,-41244.06
-906914.74,-1590735.11,-1069.93,-313.55,703.01,-1645205.95,-921120.25,-41274.91
-906933.78,-1590758.45,-1041.23,-276.27,702.74,-1645225.8,-921125.08,-41310.31
-906958.99,-1590781.25,-1049.55,-281.1,732.51,-1645247.26,-921195.89,-41266.59
-906992.79,-1590805.12,-1073.69,-326.96,742.44,-1645268.18,-921197.23,-41219.12
-907026.85,-1590828.19,-1095.15,-347.88,721.25,-1645287.76,-921245.51,-41218.04
-906914.74,-1590735.11,-1069.93,-313.55,703.01,-1645205.95,-921120.25,-41274.91
-906933.78,-1590758.45,-1041.23,-276.27,702.74,-1645225.8,-921125.08,-41310.31
-906958.99,-1590781.25,-1049.55,-281.1,732.51,-1645247.26,-921195.89,-41266.59
-906992.79,-1590805.12,-1073.69,-326.96,742.44,-1645268.18,-921197.23,-41219.12
-907026.85,-1590828.19,-1095.15,-347.88,721.25,-1645287.76,-921245.51,-41218.04
-907040.53,-1590848.84,-1078.52,-307.92,698.45,-1645305.73,-921247.66,-41278.93
-907054.48,-1590871.91,-1051.16,-298.53,706.76,-1645323.17,-921223.78,-41302.53
-907086.66,-1590885.85,-1044.45,-285.39,733.05,-1645340.06,-921270.99,-41259.62
-907124.48,-1590912.14,-1076.37,-345.2,754.51,-1645360.18,-921320.08,-41206.51
-907155.6,-1590941.11,-1083.08,-355.12,729.02,-1645378.96,-921370.77,-41204.63
-907040.53,-1590848.84,-1078.52,-307.92,698.45,-1645305.73,-921247.66,-41278.93
-907054.48,-1590871.91,-1051.16,-298.53,706.76,-1645323.17,-921223.78,-41302.53
-907086.66,-1590885.85,-1044.45,-285.39,733.05,-1645340.06,-921270.99,-41259.62
-907124.48,-1590912.14,-1076.37,-345.2,754.51,-1645360.18,-921320.08,-41206.51
-907155.6,-1590941.11,-1083.08,-355.12,729.02,-1645378.96,-921370.77,-41204.63
-907175.45,-1590964.98,-1060.28,-321.33,704.08,-1645398.54,-921372.38,-41225.02
-907190.73,-1590986.7,-1018.43,-288.07,721.25,-1645417.04,-921329.46,-41259.89
-907215.95,-1591010.31,-1021.39,-311.4,768.18,-1645437.43,-921361.38,-41234.94
-907262.35,-1591033.91,-1050.89,-331.25,778.38,-1645458.08,-921455.53,-41153.67
-907295.07,-1591056.71,-1063.23,-346.81,752.36,-1645477.93,-921470.01,-41151.26
-907175.45,-1590964.98,-1060.28,-321.33,704.08,-1645398.54,-921372.38,-41225.02
-907190.73,-1590986.7,-1018.43,-288.07,721.25,-1645417.04,-921329.46,-41259.89
-907215.95,-1591010.31,-1021.39,-311.4,768.18,-1645437.43,-921361.38,-41234.94
-907262.35,-1591033.91,-1050.89,-331.25,778.38,-1645458.08,-921455.53,-41153.67
-907295.07,-1591056.71,-1063.23,-346.81,752.36,-1645477.93,-921470.01,-41151.26
-907309.56,-1591075.49,-1038.55,-311.94,730.1,-1645497.51,-921412.61,-41225.02
-907321.36,-1591093.72,-1015.22,-286.73,746.46,-1645519.77,-921367.01,-41275.98
-907365.08,-1591124.03,-1017.63,-266.08,777.3,-1645539.62,-921510.51,-41169.77
-907402.36,-1591148.17,-1047.94,-271.17,784.28,-1645560.27,-921560.13,-41131.14
-907426.23,-1591169.63,-1062.15,-288.07,753.97,-1645578.24,-921564.43,-41165.47
-907309.56,-1591075.49,-1038.55,-311.94,730.1,-1645497.51,-921412.61,-41225.02
-907321.36,-1591093.72,-1015.22,-286.73,746.46,-1645519.77,-921367.01,-41275.98
-907365.08,-1591124.03,-1017.63,-266.08,777.3,-1645539.62,-921510.51,-41169.77
-907402.36,-1591148.17,-1047.94,-271.17,784.28,-1645560.27,-921560.13,-41131.14
-907426.23,-1591169.63,-1062.15,-288.07,753.97,-1645578.24,-921564.43,-41165.47
-907437.23,-1591193.77,-1051.43,-280.29,735.19,-1645597.02,-921486.1,-41226.9
-907458.69,-1591219.25,-1031.85,-267.15,738.41,-1645619.28,-921520.44,-41238.7
-907488.46,-1591244.46,-1032.65,-287.0,766.84,-1645641.28,-921614.05,-41193.1
-907529.5,-1591269.95,-1046.87,-310.06,775.69,-1645663.0,-921652.4,-41127.39
-907554.17,-1591294.62,-1060.81,-344.13,752.09,-1645682.58,-921633.36,-41180.49
-907437.23,-1591193.77,-1051.43,-280.29,735.19,-1645597.02,-921486.1,-41226.9
-907458.69,-1591219.25,-1031.85,-267.15,738.41,-1645619.28,-921520.44,-41238.7
-907488.46,-1591244.46,-1032.65,-287.0,766.84,-1645641.28,-921614.05,-41193.1
-907529.5,-1591269.95,-1046.87,-310.06,775.69,-1645663.0,-921652.4,-41127.39
-907554.17,-1591294.62,-1060.81,-344.13,752.09,-1645682.58,-921633.36,-41180.49
-907568.12,-1591317.69,-1048.74,-337.69,733.85,-1645700.28,-921648.38,-41233.07
-907577.78,-1591340.22,-1024.34,-301.75,738.41,-1645718.26,-921593.66,-41238.97
-907607.28,-1591365.16,-1027.02,-312.48,768.72,-1645737.84,-921695.32,-41191.76
-907643.49,-1591391.72,-1050.62,-354.59,777.3,-1645758.49,-921712.75,-41136.77
-907679.43,-1591414.78,-1076.64,-369.07,753.43,-1645777.0,-921763.71,-41124.7
-907568.12,-1591317.69,-1048.74,-337.69,733.85,-1645700.28,-921648.38,-41233.07
-907577.78,-1591340.22,-1024.34,-301.75,738.41,-1645718.26,-921593.66,-41238.97
-907607.28,-1591365.16,-1027.02,-312.48,768.72,-1645737.84,-921695.32,-41191.76
-907643.49,-1591391.72,-1050.62,-354.59,777.3,-1645758.49,-921712.75,-41136.77
-907679.43,-1591414.78,-1076.64,-369.07,753.43,-1645777.0,-921763.71,-41124.7
-907692.31,-1591436.51,-1052.77,-327.5,725.27,-1645793.36,-921737.7,-41201.95
-907707.6,-1591457.97,-1014.95,-289.41,737.88,-1645809.99,-921716.24,-41215.36
-907738.71,-1591481.57,-1007.44,-290.22,765.77,-1645828.76,-921745.74,-41171.64
-907780.28,-1591507.05,-1044.45,-332.06,782.4,-1645847.81,-921816.28,-41098.15
-907813.81,-1591533.61,-1059.47,-349.76,738.95,-1645870.87,-921869.66,-41102.98
-907692.31,-1591436.51,-1052.77,-327.5,725.27,-1645793.36,-921737.7,-41201.95
-907707.6,-1591457.97,-1014.95,-289.41,737.88,-1645809.99,-921716.24,-41215.36
-907738.71,-1591481.57,-1007.44,-290.22,765.77,-1645828.76,-921745.74,-41171.64
-907780.28,-1591507.05,-1044.45,-332.06,782.4,-1645847.81,-921816.28,-41098.15
-907813.81,-1591533.61,-1059.47,-349.76,738.95,-1645870.87,-921869.66,-41102.98
-907826.42,-1591556.94,-1034.53,-336.62,715.35,-1645889.38,-921810.92,-41201.95
-907828.3,-1591580.01,-1010.39,-308.99,726.07,-1645909.23,-921720.26,-41241.92
-907866.38,-1591604.69,-1021.12,-337.15,759.87,-1645929.35,-921852.23,-41151.53
-907909.03,-1591629.9,-1047.94,-381.95,770.33,-1645948.93,-921930.55,-41086.62
-907940.68,-1591653.23,-1058.4,-373.36,742.44,-1645969.31,-921957.1,-41081.25
-907826.42,-1591556.94,-1034.53,-336.62,715.35,-1645889.38,-921810.92,-41201.95
-907828.3,-1591580.01,-1010.39,-308.99,726.07,-1645909.23,-921720.26,-41241.92
-907866.38,-1591604.69,-1021.12,-337.15,759.87,-1645929.35,-921852.23,-41151.53
-907909.03,-1591629.9,-1047.94,-381.95,770.33,-1645948.93,-921930.55,-41086.62
-907940.68,-1591653.23,-1058.4,-373.36,742.44,-1645969.31,-921957.1,-41081.25
-907954.09,-1591676.3,-1033.19,-336.62,723.66,-1645990.77,-921890.58,-41144.82
-907965.09,-1591699.9,-1006.9,-329.11,740.83,-1646011.15,-921856.79,-41187.47
-908001.57,-1591724.85,-1014.14,-330.98,774.62,-1646032.07,-921962.2,-41130.07
-908041.26,-1591747.65,-1041.5,-339.3,776.77,-1646052.73,-922025.23,-41051.75
-908068.35,-1591770.18,-1057.6,-347.35,755.85,-1646072.84,-922025.5,-41075.89
-907954.09,-1591676.3,-1033.19,-336.62,723.66,-1645990.77,-921890.58,-41144.82
-907965.09,-1591699.9,-1006.9,-329.11,740.83,-1646011.15,-921856.79,-41187.47
-908001.57,-1591724.85,-1014.14,-330.98,774.62,-1646032.07,-921962.2,-41130.07
-908041.26,-1591747.65,-1041.5,-339.3,776.77,-1646052.73,-922025.23,-41051.75
-908068.35,-1591770.18,-1057.6,-347.35,755.85,-1646072.84,-922025.5,-41075.89
-908078.55,-1591796.73,-1049.01,-343.05,730.37,-1646096.98,-921958.17,-41163.06
-908088.47,-1591819.53,-1029.43,-306.58,730.9,-1646117.37,-922006.99,-41182.91
-908122.27,-1591844.47,-1031.04,-318.38,756.92,-1646138.56,-922096.31,-41099.49
-908159.01,-1591870.22,-1050.35,-352.71,757.46,-1646161.62,-922113.74,-41058.99
-908181.81,-1591896.51,-1071.81,-377.92,732.24,-1646185.76,-922091.48,-41105.39
-908078.55,-1591796.73,-1049.01,-343.05,730.37,-1646096.98,-921958.17,-41163.06
-908088.47,-1591819.53,-1029.43,-306.58,730.9,-1646117.37,-922006.99,-41182.91
-908122.27,-1591844.47,-1031.04,-318.38,756.92,-1646138.56,-922096.31,-41099.49
-908159.01,-1591870.22,-1050.35,-352.71,757.46,-1646161.62,-922113.74,-41058.99
-908181.81,-1591896.51,-1071.81,-377.92,732.24,-1646185.76,-922091.48,-41105.39
-908194.95,-1591920.11,-1046.06,-349.76,696.84,-1646205.08,-922064.12,-41174.32
-908200.59,-1591942.11,-1013.61,-329.38,704.88,-1646225.73,-921962.47,-41184.25
-908231.7,-1591966.52,-1010.39,-349.76,733.85,-1646247.46,-922064.12,-41107.81
-908274.08,-1591993.87,-1038.01,-398.04,752.09,-1646272.67,-922128.23,-41047.46
-908309.48,-1592017.48,-1050.35,-396.97,722.86,-1646294.13,-922203.6,-41033.51
-908194.95,-1591920.11,-1046.06,-349.76,696.84,-1646205.08,-922064.12,-41174.32
-908200.59,-1591942.11,-1013.61,-329.38,704.88,-1646225.73,-921962.47,-41184.25
-908231.7,-1591966.52,-1010.39,-349.76,733.85,-1646247.46,-922064.12,-41107.81
-908274.08,-1591993.87,-1038.01,-398.04,752.09,-1646272.67,-922128.23,-41047.46
-908309.48,-1592017.48,-1050.35,-396.97,722.86,-1646294.13,-922203.6,-41033.51
-908315.38,-1592040.01,-1021.12,-357.54,701.4,-1646313.71,-922154.51,-41124.44
-908327.45,-1592059.59,-985.44,-320.79,711.59,-1646333.02,-922113.74,-41119.61
-908363.4,-1592075.95,-976.86,-332.59,749.95,-1646356.08,-922137.88,-41067.84
-908409.26,-1592111.89,-1021.92,-332.59,766.04,-1646383.98,-922250.53,-41009.1
-908441.45,-1592140.32,-1033.72,-339.3,731.97,-1646406.78,-922265.55,-41031.63
-908315.38,-1592040.01,-1021.12,-357.54,701.4,-1646313.71,-922154.51,-41124.44
-908327.45,-1592059.59,-985.44,-320.79,711.59,-1646333.02,-922113.74,-41119.61
-908363.4,-1592075.95,-976.86,-332.59,749.95,-1646356.08,-922137.88,-41067.84
-908409.26,-1592111.89,-1021.92,-332.59,766.04,-1646383.98,-922250.53,-41009.1
-908441.45,-1592140.32,-1033.72,-339.3,731.97,-1646406.78,-922265.55,-41031.63
-908439.3,-1592164.19,-1010.39,-333.13,713.2,-1646428.5,-922097.11,-41144.82
-908438.77,-1592190.21,-990.81,-312.75,729.83,-1646451.03,-922009.14,-41198.2
-908474.71,-1592216.23,-999.12,-328.3,756.11,-1646474.1,-922147.81,-41110.22
-908524.33,-1592243.05,-1016.56,-348.42,756.65,-1646498.24,-922288.62,-41013.66
-908552.49,-1592268.8,-1026.48,-365.05,737.61,-1646520.77,-922319.74,-41052.55
-908439.3,-1592164.19,-1010.39,-333.13,713.2,-1646428.5,-922097.11,-41144.82
-908438.77,-1592190.21,-990.81,-312.75,729.83,-1646451.03,-922009.14,-41198.2
-908474.71,-1592216.23,-999.12,-328.3,756.11,-1646474.1,-922147.81,-41110.22
-908524.33,-1592243.05,-1016.56,-348.42,756.65,-1646498.24,-922288.62,-41013.66
-908552.49,-1592268.8,-1026.48,-365.05,737.61,-1646520.77,-922319.74,-41052.55
-908555.71,-1592294.01,-1009.58,-338.49,715.61,-1646541.16,-922165.51,-41146.7
-908569.39,-1592317.88,-987.59,-327.77,729.29,-1646563.15,-922105.96,-41156.35
-908604.26,-1592344.17,-982.49,-333.67,753.97,-1646585.41,-922212.45,-41119.88
-908653.34,-1592369.65,-1011.73,-336.08,775.43,-1646606.33,-922342.0,-40993.54
-908680.17,-1592395.4,-1026.21,-333.94,749.68,-1646629.67,-922345.22,-41008.3
-908555.71,-1592294.01,-1009.58,-338.49,715.61,-1646541.16,-922165.51,-41146.7
-908569.39,-1592317.88,-987.59,-327.77,729.29,-1646563.15,-922105.96,-41156.35
-908604.26,-1592344.17,-982.49,-333.67,753.97,-1646585.41,-922212.45,-41119.88
-908653.34,-1592369.65,-1011.73,-336.08,775.43,-1646606.33,-922342.0,-40993.54
-908680.17,-1592395.4,-1026.21,-333.94,749.68,-1646629.67,-922345.22,-41008.3

-908815.35,-1592551.51,-994.56,-357.27,727.15,-1646756.81,-922342.0,-41109.42
-908823.66,-1592575.91,-962.11,-339.03,729.02,-1646775.85,-922245.71,-41148.04
-908874.63,-1592602.47,-950.84,-321.33,755.31,-1646797.58,-922404.23,-41031.36
-908912.71,-1592629.83,-990.81,-369.34,784.81,-1646821.45,-922443.65,-40995.15
-908940.88,-1592654.5,-1010.39,-377.39,756.65,-1646841.83,-922471.82,-41010.44
-908815.35,-1592551.51,-994.56,-357.27,727.15,-1646756.81,-922342.0,-41109.42
-908823.66,-1592575.91,-962.11,-339.03,729.02,-1646775.85,-922245.71,-41148.04
-908874.63,-1592602.47,-950.84,-321.33,755.31,-1646797.58,-922404.23,-41031.36
-908912.71,-1592629.83,-990.81,-369.34,784.81,-1646821.45,-922443.65,-40995.15
-908940.88,-1592654.5,-1010.39,-377.39,756.65,-1646841.83,-922471.82,-41010.44
-908952.95,-1592674.89,-998.32,-354.59,745.39,-1646859.0,-922344.14,-41064.62
-908954.56,-1592696.88,-974.18,-335.81,748.6,-1646878.85,-922264.48,-41103.78
-908983.79,-1592724.51,-966.13,-346.81,767.38,-1646903.79,-922372.04,-41055.77
-909037.44,-1592751.87,-988.13,-347.35,779.72,-1646927.4,-922511.51,-40946.87
-909063.45,-1592776.01,-1000.2,-349.49,754.77,-1646949.39,-922546.92,-40976.38
-908952.95,-1592674.89,-998.32,-354.59,745.39,-1646859.0,-922344.14,-41064.62
-908954.56,-1592696.88,-974.18,-335.81,748.6,-1646878.85,-922264.48,-41103.78
-908983.79,-1592724.51,-966.13,-346.81,767.38,-1646903.79,-922372.04,-41055.77
-909037.44,-1592751.87,-988.13,-347.35,779.72,-1646927.4,-922511.51,-40946.87
-909063.45,-1592776.01,-1000.2,-349.49,754.77,-1646949.39,-922546.92,-40976.38
-909063.72,-1592793.71,-975.79,-327.23,732.51,-1646968.97,-922449.29,-41081.79
-909073.11,-1592782.98,-944.94,-321.33,748.6,-1646989.89,-922328.85,-41105.93
-909108.78,-1592833.67,-941.46,-324.01,779.99,-1647013.23,-922459.21,-41045.58
-909156.26,-1592865.86,-963.45,-340.64,795.28,-1647035.76,-922571.06,-40950.63
-909185.76,-1592890.0,-966.13,-328.03,774.35,-1647057.48,-922599.76,-40960.02
-909063.72,-1592793.71,-975.79,-327.23,732.51,-1646968.97,-922449.29,-41081.79
-909073.11,-1592782.98,-944.94,-321.33,748.6,-1646989.89,-922328.85,-41105.93
-909108.78,-1592833.67,-941.46,-324.01,779.99,-1647013.23,-922459.21,-41045.58
-909156.26,-1592865.86,-963.45,-340.64,795.28,-1647035.76,-922571.06,-40950.63
-909185.76,-1592890.0,-966.13,-328.03,774.35,-1647057.48,-922599.76,-40960.02
-909184.69,-1592894.83,-943.87,-317.57,760.14,-1647078.14,-922441.24,-41100.56
-909197.56,-1592928.36,-921.88,-308.45,774.09,-1647099.86,-922362.11,-41098.15
-909231.36,-1592957.06,-932.07,-321.87,813.51,-1647118.91,-922488.71,-41029.49
-909274.27,-1592983.07,-961.3,-352.71,823.44,-1647142.51,-922611.56,-40944.46
-909297.07,-1593000.24,-972.3,-371.49,803.59,-1647167.99,-922569.45,-40961.89
-909184.69,-1592894.83,-943.87,-317.57,760.14,-1647078.14,-922441.24,-41100.56
-909197.56,-1592928.36,-921.88,-308.45,774.09,-1647099.86,-922362.11,-41098.15
-909231.36,-1592957.06,-932.07,-321.87,813.51,-1647118.91,-922488.71,-41029.49
-909274.27,-1592983.07,-961.3,-352.71,823.44,-1647142.51,-922611.56,-40944.46
-909297.07,-1593000.24,-972.3,-371.49,803.59,-1647167.99,-922569.45,-40961.89
-909302.44,-1593026.79,-973.37,-362.1,786.96,-1647188.11,-922477.72,-41043.16
-909304.32,-1593052.54,-955.4,-346.27,777.57,-1647208.76,-922392.16,-41093.32
-909337.31,-1593077.75,-957.28,-354.86,794.74,-1647231.02,-922544.5,-41033.78
-909377.27,-1593104.84,-982.76,-378.46,806.27,-1647254.36,-922613.71,-40961.63
-909404.09,-1593131.13,-1000.2,-393.21,793.4,-1647278.5,-922648.31,-40974.77
-909302.44,-1593026.79,-973.37,-362.1,786.96,-1647188.11,-922477.72,-41043.16
-909304.32,-1593052.54,-955.4,-346.27,777.57,-1647208.76,-922392.16,-41093.32
-909337.31,-1593077.75,-957.28,-354.86,794.74,-1647231.02,-922544.5,-41033.78
-909377.27,-1593104.84,-982.76,-378.46,806.27,-1647254.36,-922613.71,-40961.63
-909404.09,-1593131.13,-1000.2,-393.21,793.4,-1647278.5,-922648.31,-40974.77
-909410.8,-1593154.47,-970.42,-354.05,763.89,-1647298.08,-922560.33,-41047.19
-909416.97,-1593178.34,-958.62,-318.38,780.79,-1647319.8,-922489.52,-41066.23
-909449.42,-1593204.62,-954.33,-327.77,793.13,-1647342.87,-922545.85,-41025.46
-909494.22,-1593230.91,-976.32,-369.34,802.79,-1647365.67,-922635.97,-40920.59
-909525.06,-1593253.17,-987.05,-374.17,792.32,-1647385.25,-922689.08,-40933.73
-909410.8,-1593154.47,-970.42,-354.05,763.89,-1647298.08,-922560.33,-41047.19
-909416.97,-1593178.34,-958.62,-318.38,780.79,-1647319.8,-922489.52,-41066.23
-909449.42,-1593204.62,-954.33,-327.77,793.13,-1647342.87,-922545.85,-41025.46
-909494.22,-1593230.91,-976.32,-369.34,802.79,-1647365.67,-922635.97,-40920.59
-909525.06,-1593253.17,-987.05,-374.17,792.32,-1647385.25,-922689.08,-40933.73
-909525.87,-1593274.9,-986.78,-372.56,788.84,-1647406.71,-922583.13,-41027.34
-909534.72,-1593301.99,-960.77,-355.12,784.81,-1647428.97,-922494.62,-41047.72
-909571.73,-1593329.35,-953.26,-361.03,805.47,-1647453.11,-922597.88,-40977.99
-909615.45,-1593354.29,-965.86,-369.34,819.15,-1647475.1,-922725.82,-40902.89
-909642.27,-1593378.97,-977.67,-354.59,801.71,-1647497.9,-922718.58,-40946.87
-909525.87,-1593274.9,-986.78,-372.56,788.84,-1647406.71,-922583.13,-41027.34
-909534.72,-1593301.99,-960.77,-355.12,784.81,-1647428.97,-922494.62,-41047.72
-909571.73,-1593329.35,-953.26,-361.03,805.47,-1647453.11,-922597.88,-40977.99
-909615.45,-1593354.29,-965.86,-369.34,819.15,-1647475.1,-922725.82,-40902.89
-909642.27,-1593378.97,-977.67,-354.59,801.71,-1647497.9,-922718.58,-40946.87
-909648.71,-1593392.38,-963.18,-329.11,787.23,-1647521.5,-922636.24,-41018.76
-909653.0,-1593395.6,-949.5,-323.21,800.1,-1647545.64,-922577.76,-41041.82
-909685.99,-1593442.54,-956.21,-336.89,820.22,-1647559.86,-922672.98,-40992.74
-909732.13,-1593470.97,-978.74,-362.1,830.14,-1647582.93,-922781.88,-40894.84
-909756.27,-1593493.23,-984.91,-367.46,814.32,-1647605.73,-922799.58,-40918.44
-909648.71,-1593392.38,-963.18,-329.11,787.23,-1647521.5,-922636.24,-41018.76
-909653.0,-1593395.6,-949.5,-323.21,800.1,-1647545.64,-922577.76,-41041.82
-909685.99,-1593442.54,-956.21,-336.89,820.22,-1647559.86,-922672.98,-40992.74
-909732.13,-1593470.97,-978.74,-362.1,830.14,-1647582.93,-922781.88,-40894.84
-909756.27,-1593493.23,-984.91,-367.46,814.32,-1647605.73,-922799.58,-40918.44
-909762.17,-1593500.74,-972.03,-353.25,796.62,-1647626.92,-922656.62,-41004.54
-909783.89,-1593538.02,-951.11,-333.67,804.39,-1647647.84,-922655.82,-40994.35
-909815.28,-1593562.97,-952.99,-347.35,832.56,-1647667.95,-922776.52,-40952.51
-909856.05,-1593589.52,-975.79,-383.02,839.0,-1647690.48,-922844.91,-40890.28
-909881.8,-1593618.22,-989.47,-386.24,829.61,-1647715.96,-922819.16,-40908.25
-909762.17,-1593500.74,-972.03,-353.25,796.62,-1647626.92,-922656.62,-41004.54
-909783.89,-1593538.02,-951.11,-333.67,804.39,-1647647.84,-922655.82,-40994.35
-909815.28,-1593562.97,-952.99,-347.35,832.56,-1647667.95,-922776.52,-40952.51
-909856.05,-1593589.52,-975.79,-383.02,839.0,-1647690.48,-922844.91,-40890.28
-909881.8,-1593618.22,-989.47,-386.24,829.61,-1647715.96,-922819.16,-40908.25
-909894.4,-1593643.7,-980.62,-351.64,809.76,-1647739.84,-922808.7,-40954.12
-909896.55,-1593667.3,-961.04,-349.22,809.49,-1647761.56,-922699.8,-41012.32
-909928.47,-1593693.86,-962.91,-357.81,826.66,-1647784.63,-922790.46,-40948.48
-909968.7,-1593720.41,-987.05,-350.03,840.07,-1647808.23,-922874.95,-40878.75
-909996.06,-1593745.62,-996.17,-338.76,812.17,-1647829.69,-922901.51,-40876.87
-909894.4,-1593643.7,-980.62,-351.64,809.76,-1647739.84,-922808.7,-40954.12
-909896.55,-1593667.3,-961.04,-349.22,809.49,-1647761.56,-922699.8,-41012.32
-909928.47,-1593693.86,-962.91,-357.81,826.66,-1647784.63,-922790.46,-40948.48
-909968.7,-1593720.41,-987.05,-350.03,840.07,-1647808.23,-922874.95,-40878.75
-909996.06,-1593745.62,-996.17,-338.76,812.17,-1647829.69,-922901.51,-40876.87
-909999.01,-1593769.23,-974.71,-338.49,774.62,-1647850.08,-922833.65,-40981.21
-910021.0,-1593795.51,-962.64,-334.74,784.28,-1647875.02,-922773.03,-40992.74
-910055.6,-1593822.34,-969.89,-353.78,805.2,-1647899.96,-922848.67,-40914.96
-910099.05,-1593848.35,-987.32,-390.26,804.93,-1647922.49,-922954.61,-40853.0
-910135.0,-1593871.15,-998.32,-366.93,783.74,-1647943.15,-922991.63,-40845.75
-909999.01,-1593769.23,-974.71,-338.49,774.62,-1647850.08,-922833.65,-40981.21
-910021.0,-1593795.51,-962.64,-334.74,784.28,-1647875.02,-922773.03,-40992.74
-910055.6,-1593822.34,-969.89,-353.78,805.2,-1647899.96,-922848.67,-40914.96
-910099.05,-1593848.35,-987.32,-390.26,804.93,-1647922.49,-922954.61,-40853.0
-910135.0,-1593871.15,-998.32,-366.93,783.74,-1647943.15,-922991.63,-40845.75
-910154.04,-1593897.44,-988.13,-339.3,763.89,-1647966.48,-922970.71,-40909.05
-910166.11,-1593922.92,-976.86,-350.03,759.87,-1647989.55,-922917.6,-40977.99
-910204.46,-1593949.47,-989.47,-373.9,775.43,-1648013.96,-923005.04,-40912.81
-910247.92,-1593975.22,-1009.85,-389.99,777.3,-1648036.49,-923086.04,-40837.44
-910276.88,-1594000.7,-1015.75,-394.82,755.85,-1648059.02,-923116.89,-40852.46
-910154.04,-1593897.44,-988.13,-339.3,763.89,-1647966.48,-922970.71,-40909.05
-910166.11,-1593922.92,-976.86,-350.03,759.87,-1647989.55,-922917.6,-40977.99
-910204.46,-1593949.47,-989.47,-373.9,775.43,-1648013.96,-923005.04,-40912.81
-910247.92,-1593975.22,-1009.85,-389.99,777.3,-1648036.49,-923086.04,-40837.44
-910276.88,-1594000.7,-1015.75,-394.82,755.85,-1648059.02,-923116.89,-40852.46
-910296.2,-1594025.11,-1006.36,-363.44,735.73,-1648081.28,-923057.61,-40909.05
-910319.8,-1594051.93,-990.27,-350.83,736.53,-1648105.42,-923052.25,-40921.66
-910360.3,-1594079.56,-988.13,-351.37,746.46,-1648130.37,-923166.78,-40900.2
-910400.8,-1594103.43,-1015.75,-348.69,754.51,-1648151.56,-923209.42,-40840.12
-910427.62,-1594131.33,-1031.31,-345.74,733.05,-1648176.23,-923198.16,-40851.12
-910296.2,-1594025.11,-1006.36,-363.44,735.73,-1648081.28,-923057.61,-40909.05
-910319.8,-1594051.93,-990.27,-350.83,736.53,-1648105.42,-923052.25,-40921.66
-910360.3,-1594079.56,-988.13,-351.37,746.46,-1648130.37,-923166.78,-40900.2
-910400.8,-1594103.43,-1015.75,-348.69,754.51,-1648151.56,-923209.42,-40840.12
-910427.62,-1594131.33,-1031.31,-345.74,733.05,-1648176.23,-923198.16,-40851.12
-910443.72,-1594155.2,-1033.99,-371.49,718.56,-1648196.88,-923125.74,-40913.08
-910459.54,-1594176.12,-1037.75,-394.82,727.15,-1648216.2,-923150.68,-40912.27
-910495.75,-1594203.75,-1037.21,-387.31,729.29,-1648239.8,-923243.76,-40854.07
-910537.6,-1594226.81,-1062.96,-390.26,732.24,-1648265.55,-923288.01,-40817.05
-910567.1,-1594238.61,-1082.27,-430.49,699.79,-1648291.84,-923265.21,-40851.12
-910443.72,-1594155.2,-1033.99,-371.49,718.56,-1648196.88,-923125.74,-40913.08
-910459.54,-1594176.12,-1037.75,-394.82,727.15,-1648216.2,-923150.68,-40912.27
-910495.75,-1594203.75,-1037.21,-387.31,729.29,-1648239.8,-923243.76,-40854.07
-910537.6,-1594226.81,-1062.96,-390.26,732.24,-1648265.55,-923288.01,-40817.05
-910567.1,-1594238.61,-1082.27,-430.49,699.79,-1648291.84,-923265.21,-40851.12
-910595.26,-1594277.51,-1078.25,-444.44,674.04,-1648314.63,-923327.44,-40895.11
-910618.6,-1594304.6,-1063.5,-422.18,667.6,-1648337.43,-923350.24,-40901.54
-910659.64,-1594331.15,-1067.79,-431.03,681.55,-1648360.77,-923401.74,-40821.08
-910691.82,-1594356.9,-1104.53,-479.85,685.3,-1648383.83,-923384.3,-40813.84
-910730.45,-1594383.19,-1132.43,-507.74,660.09,-1648407.17,-923456.72,-40788.35
-910595.26,-1594277.51,-1078.25,-444.44,674.04,-1648314.63,-923327.44,-40895.11
-910618.6,-1594304.6,-1063.5,-422.18,667.6,-1648337.43,-923350.24,-40901.54
-910659.64,-1594331.15,-1067.79,-431.03,681.55,-1648360.77,-923401.74,-40821.08
-910691.82,-1594356.9,-1104.53,-479.85,685.3,-1648383.83,-923384.3,-40813.84
-910730.45,-1594383.19,-1132.43,-507.74,660.09,-1648407.17,-923456.72,-40788.35
-910751.64,-1594409.47,-1125.19,-500.5,633.0,-1648430.51,-923496.42,-40855.68
-910783.02,-1594435.76,-1115.26,-487.09,634.61,-1648454.11,-923524.05,-40883.84
-910817.35,-1594462.31,-1128.94,-495.94,651.51,-1648477.71,-923508.76,-40836.63
-910851.15,-1594486.18,-1164.62,-546.37,653.12,-1648497.02,-923556.23,-40794.79
-910884.94,-1594509.52,-1172.66,-557.09,626.3,-1648520.09,-923606.66,-40788.89
-910751.64,-1594409.47,-1125.19,-500.5,633.0,-1648430.51,-923496.42,-40855.68
-910783.02,-1594435.76,-1115.26,-487.09,634.61,-1648454.11,-923524.05,-40883.84
-910817.35,-1594462.31,-1128.94,-495.94,651.51,-1648477.71,-923508.76,-40836.63
-910851.15,-1594486.18,-1164.62,-546.37,653.12,-1648497.02,-923556.23,-40794.79
-910884.94,-1594509.52,-1172.66,-557.09,626.3,-1648520.09,-923606.66,-40788.89

-911061.97,-1594658.38,-1120.63,-515.79,604.3,-1648660.37,-923706.17,-40869.89
-911084.23,-1594683.32,-1107.75,-510.96,617.18,-1648682.9,-923702.95,-40891.62
-911120.17,-1594714.71,-1110.17,-520.89,632.73,-1648706.5,-923774.3,-40842.0
-911163.09,-1594743.14,-1136.45,-558.97,650.17,-1648730.91,-923833.84,-40776.82
-911193.93,-1594767.81,-1145.3,-558.7,628.44,-1648753.18,-923837.6,-40777.89
-911061.97,-1594658.38,-1120.63,-515.79,604.3,-1648660.37,-923706.17,-40869.89
-911084.23,-1594683.32,-1107.75,-510.96,617.18,-1648682.9,-923702.95,-40891.62
-911120.17,-1594714.71,-1110.17,-520.89,632.73,-1648706.5,-923774.3,-40842.0
-911163.09,-1594743.14,-1136.45,-558.97,650.17,-1648730.91,-923833.84,-40776.82
-911193.93,-1594767.81,-1145.3,-558.7,628.44,-1648753.18,-923837.6,-40777.89
-911214.58,-1594790.08,-1148.25,-562.73,622.54,-1648774.36,-923861.2,-40805.52
-911228.26,-1594814.75,-1147.45,-562.19,631.93,-1648796.09,-923896.87,-40851.92
-911265.55,-1594842.38,-1156.57,-576.41,643.46,-1648821.57,-923925.84,-40803.91
-911304.71,-1594870.54,-1169.71,-601.62,637.56,-1648846.78,-923945.69,-40779.5
-911334.75,-1594896.56,-1183.39,-624.15,622.54,-1648869.58,-923951.32,-40792.38
-911214.58,-1594790.08,-1148.25,-562.73,622.54,-1648774.36,-923861.2,-40805.52
-911228.26,-1594814.75,-1147.45,-562.19,631.93,-1648796.09,-923896.87,-40851.92
-911265.55,-1594842.38,-1156.57,-576.41,643.46,-1648821.57,-923925.84,-40803.91
-911304.71,-1594870.54,-1169.71,-601.62,637.56,-1648846.78,-923945.69,-40779.5
-911334.75,-1594896.56,-1183.39,-624.15,622.54,-1648869.58,-923951.32,-40792.38
-911363.45,-1594921.24,-1169.17,-576.67,602.42,-1648892.65,-924024.28,-40795.06
-911394.02,-1594948.06,-1143.43,-523.57,606.45,-1648916.25,-924056.47,-40808.47
-911420.04,-1594973.27,-1132.97,-553.61,628.71,-1648939.86,-924069.34,-40812.23
-911450.62,-1594999.56,-1157.91,-609.93,645.34,-1648962.92,-924061.29,-40799.62
-911490.32,-1595026.38,-1158.45,-597.06,614.23,-1648985.19,-924132.1,-40779.5
-911363.45,-1594921.24,-1169.17,-576.67,602.42,-1648892.65,-924024.28,-40795.06
-911394.02,-1594948.06,-1143.43,-523.57,606.45,-1648916.25,-924056.47,-40808.47
-911420.04,-1594973.27,-1132.97,-553.61,628.71,-1648939.86,-924069.34,-40812.23
-911450.62,-1594999.56,-1157.91,-609.93,645.34,-1648962.92,-924061.29,-40799.62
-911490.32,-1595026.38,-1158.45,-597.06,614.23,-1648985.19,-924132.1,-40779.5
-911509.09,-1595049.98,-1138.87,-583.92,606.98,-1649007.18,-924103.4,-40827.78
-911530.55,-1595074.39,-1122.24,-556.83,623.35,-1649028.91,-924104.75,-40820.27
-911560.32,-1595100.41,-1122.24,-561.12,646.41,-1649051.97,-924120.03,-40788.09
-911603.77,-1595125.62,-1149.06,-530.0,656.87,-1649073.97,-924214.45,-40728.27
-911637.84,-1595154.05,-1165.96,-533.49,626.03,-1649099.18,-924252.8,-40738.47
-911509.09,-1595049.98,-1138.87,-583.92,606.98,-1649007.18,-924103.4,-40827.78
-911530.55,-1595074.39,-1122.24,-556.83,623.35,-1649028.91,-924104.75,-40820.27
-911560.32,-1595100.41,-1122.24,-561.12,646.41,-1649051.97,-924120.03,-40788.09
-911603.77,-1595125.62,-1149.06,-530.0,656.87,-1649073.97,-924214.45,-40728.27
-911637.84,-1595154.05,-1165.96,-533.49,626.03,-1649099.18,-924252.8,-40738.47
-911656.61,-1595180.61,-1141.82,-523.03,599.21,-1649122.78,-924264.87,-40801.5
-911682.63,-1595206.09,-1115.26,-501.3,609.67,-1649145.58,-924289.28,-40818.93
-911720.18,-1595231.84,-1117.14,-526.25,640.51,-1649168.92,-924312.62,-40776.02
-911755.85,-1595257.32,-1127.87,-547.71,646.14,-1649192.25,-924356.87,-40744.37
-911787.77,-1595283.87,-1130.01,-559.78,633.27,-1649215.32,-924394.16,-40767.43
-911656.61,-1595180.61,-1141.82,-523.03,599.21,-1649122.78,-924264.87,-40801.5
-911682.63,-1595206.09,-1115.26,-501.3,609.67,-1649145.58,-924289.28,-40818.93
-911720.18,-1595231.84,-1117.14,-526.25,640.51,-1649168.92,-924312.62,-40776.02
-911755.85,-1595257.32,-1127.87,-547.71,646.14,-1649192.25,-924356.87,-40744.37
-911787.77,-1595283.87,-1130.01,-559.78,633.27,-1649215.32,-924394.16,-40767.43
-911808.69,-1595308.82,-1113.39,-542.88,625.49,-1649236.78,-924338.9,-40826.98
-911820.76,-1595333.76,-1097.02,-521.15,626.03,-1649259.58,-924360.36,-40857.56
-911865.29,-1595361.39,-1092.2,-506.67,635.42,-1649284.25,-924459.87,-40767.7
-911908.74,-1595386.6,-1106.14,-523.3,645.88,-1649306.78,-924491.79,-40698.23
-911936.64,-1595411.01,-1114.99,-543.15,637.83,-1649328.51,-924473.55,-40743.03
-911808.69,-1595308.82,-1113.39,-542.88,625.49,-1649236.78,-924338.9,-40826.98
-911820.76,-1595333.76,-1097.02,-521.15,626.03,-1649259.58,-924360.36,-40857.56
-911865.29,-1595361.39,-1092.2,-506.67,635.42,-1649284.25,-924459.87,-40767.7
-911908.74,-1595386.6,-1106.14,-523.3,645.88,-1649306.78,-924491.79,-40698.23
-911936.64,-1595411.01,-1114.99,-543.15,637.83,-1649328.51,-924473.55,-40743.03
-911962.65,-1595433.0,-1108.83,-504.79,633.81,-1649348.09,-924518.34,-40775.75
-911986.52,-1595461.43,-1086.56,-463.22,628.44,-1649373.57,-924545.7,-40801.77
-912016.83,-1595490.67,-1084.15,-486.02,645.88,-1649399.59,-924553.48,-40790.5
-912053.58,-1595515.61,-1101.05,-513.91,656.6,-1649421.58,-924569.57,-40731.22
-912083.62,-1595542.17,-1113.39,-525.71,640.51,-1649444.65,-924589.96,-40730.69
-911962.65,-1595433.0,-1108.83,-504.79,633.81,-1649348.09,-924518.34,-40775.75
-911986.52,-1595461.43,-1086.56,-463.22,628.44,-1649373.57,-924545.7,-40801.77
-912016.83,-1595490.67,-1084.15,-486.02,645.88,-1649399.59,-924553.48,-40790.5
-912053.58,-1595515.61,-1101.05,-513.91,656.6,-1649421.58,-924569.57,-40731.22
-912083.62,-1595542.17,-1113.39,-525.71,640.51,-1649444.65,-924589.96,-40730.69
-912096.5,-1595567.11,-1098.1,-498.62,620.13,-1649467.72,-924545.43,-40807.67
-912107.76,-1595591.79,-1090.05,-502.91,625.49,-1649489.71,-924451.56,-40835.83
-912138.07,-1595618.34,-1088.44,-512.3,636.22,-1649513.04,-924543.02,-40785.94
-912184.2,-1595644.9,-1110.43,-505.6,643.73,-1649536.65,-924640.92,-40702.79
-912219.88,-1595670.91,-1111.78,-506.13,617.18,-1649560.25,-924703.68,-40688.04
-912096.5,-1595567.11,-1098.1,-498.62,620.13,-1649467.72,-924545.43,-40807.67
-912107.76,-1595591.79,-1090.05,-502.91,625.49,-1649489.71,-924451.56,-40835.83
-912138.07,-1595618.34,-1088.44,-512.3,636.22,-1649513.04,-924543.02,-40785.94
-912184.2,-1595644.9,-1110.43,-505.6,643.73,-1649536.65,-924640.92,-40702.79
-912219.88,-1595670.91,-1111.78,-506.13,617.18,-1649560.25,-924703.68,-40688.04
-912242.41,-1595695.86,-1091.66,-467.51,611.01,-1649582.51,-924713.07,-40766.09
-912264.13,-1595720.27,-1072.08,-436.4,630.05,-1649603.17,-924701.81,-40788.35
-912293.64,-1595742.26,-1077.44,-458.66,661.7,-1649623.02,-924710.66,-40738.73
-912334.94,-1595768.28,-1097.56,-494.6,676.99,-1649646.35,-924789.78,-40679.73
-912369.54,-1595797.78,-1101.58,-495.94,665.99,-1649672.64,-924831.09,-40692.87
-912242.41,-1595695.86,-1091.66,-467.51,611.01,-1649582.51,-924713.07,-40766.09
-912264.13,-1595720.27,-1072.08,-436.4,630.05,-1649603.17,-924701.81,-40788.35
-912293.64,-1595742.26,-1077.44,-458.66,661.7,-1649623.02,-924710.66,-40738.73
-912334.94,-1595768.28,-1097.56,-494.6,676.99,-1649646.35,-924789.78,-40679.73
-912369.54,-1595797.78,-1101.58,-495.94,665.99,-1649672.64,-924831.09,-40692.87
-912385.37,-1595823.8,-1084.69,-470.73,652.05,-1649696.51,-924850.4,-40760.19
-912406.83,-1595848.21,-1062.15,-424.33,660.9,-1649718.77,-924847.99,-40780.31
-912440.89,-1595875.57,-1060.01,-434.25,678.87,-1649742.37,-924912.63,-40742.49
-912482.2,-1595902.12,-1073.42,-463.75,690.94,-1649765.98,-924947.5,-40682.14
-912517.33,-1595927.6,-1083.88,-477.17,687.72,-1649789.58,-924962.25,-40695.28
-912385.37,-1595823.8,-1084.69,-470.73,652.05,-1649696.51,-924850.4,-40760.19
-912406.83,-1595848.21,-1062.15,-424.33,660.9,-1649718.77,-924847.99,-40780.31
-912440.89,-1595875.57,-1060.01,-434.25,678.87,-1649742.37,-924912.63,-40742.49
-912482.2,-1595902.12,-1073.42,-463.75,690.94,-1649765.98,-924947.5,-40682.14
-912517.33,-1595927.6,-1083.88,-477.17,687.72,-1649789.58,-924962.25,-40695.28
-912533.96,-1595951.21,-1065.64,-457.05,674.31,-1649810.77,-924908.34,-40756.44
-912548.72,-1595977.76,-1045.79,-448.47,680.74,-1649833.84,-924923.09,-40783.53
-912580.63,-1596005.39,-1041.5,-466.17,700.86,-1649856.64,-924975.39,-40742.76
-912623.55,-1596032.21,-1049.28,-486.55,713.47,-1649879.7,-925053.71,-40660.15
-912657.61,-1596053.67,-1052.23,-475.02,704.35,-1649900.36,-925086.43,-40644.86
-912533.96,-1595951.21,-1065.64,-457.05,674.31,-1649810.77,-924908.34,-40756.44
-912548.72,-1595977.76,-1045.79,-448.47,680.74,-1649833.84,-924923.09,-40783.53
-912580.63,-1596005.39,-1041.5,-466.17,700.86,-1649856.64,-924975.39,-40742.76
-912623.55,-1596032.21,-1049.28,-486.55,713.47,-1649879.7,-925053.71,-40660.15
-912657.61,-1596053.67,-1052.23,-475.02,704.35,-1649900.36,-925086.43,-40644.86
-912691.95,-1596080.49,-1042.04,-429.96,697.11,-1649922.35,-925091.8,-40681.07
-912704.02,-1596106.51,-1024.87,-425.67,704.35,-1649946.76,-925007.85,-40769.31
-912735.67,-1596133.06,-1025.14,-433.45,716.95,-1649970.9,-925089.92,-40715.67
-912771.07,-1596158.54,-1047.67,-454.37,729.02,-1649993.43,-925131.5,-40672.75
-912800.84,-1596183.75,-1065.37,-471.8,720.44,-1650015.96,-925159.93,-40664.17
-912691.95,-1596080.49,-1042.04,-429.96,697.11,-1649922.35,-925091.8,-40681.07
-912704.02,-1596106.51,-1024.87,-425.67,704.35,-1649946.76,-925007.85,-40769.31
-912735.67,-1596133.06,-1025.14,-433.45,716.95,-1649970.9,-925089.92,-40715.67
-912771.07,-1596158.54,-1047.67,-454.37,729.02,-1649993.43,-925131.5,-40672.75
-912800.84,-1596183.75,-1065.37,-471.8,720.44,-1650015.96,-925159.93,-40664.17
-912814.25,-1596208.97,-1048.48,-437.2,698.45,-1650039.56,-925134.18,-40721.57
-912835.18,-1596236.06,-1038.01,-420.03,702.47,-1650064.24,-925067.12,-40759.12
-912875.68,-1596262.34,-1035.87,-402.33,712.39,-1650086.5,-925149.2,-40682.14
-912915.91,-1596287.29,-1051.16,-422.45,721.25,-1650109.57,-925236.91,-40631.45
-912947.56,-1596311.96,-1054.11,-421.64,703.54,-1650131.83,-925255.68,-40663.63
-912814.25,-1596208.97,-1048.48,-437.2,698.45,-1650039.56,-925134.18,-40721.57
-912835.18,-1596236.06,-1038.01,-420.03,702.47,-1650064.24,-925067.12,-40759.12
-912875.68,-1596262.34,-1035.87,-402.33,712.39,-1650086.5,-925149.2,-40682.14
-912915.91,-1596287.29,-1051.16,-422.45,721.25,-1650109.57,-925236.91,-40631.45
-912947.56,-1596311.96,-1054.11,-421.64,703.54,-1650131.83,-925255.68,-40663.63
-912964.99,-1596337.44,-1040.97,-414.4,694.16,-1650153.82,-925207.13,-40733.37
-912989.13,-1596361.05,-1020.04,-389.99,699.79,-1650173.94,-925202.57,-40716.74
-913032.05,-1596386.8,-1008.51,-390.8,731.97,-1650197.01,-925316.57,-40640.57
-913068.53,-1596413.35,-1026.75,-416.28,745.12,-1650221.15,-925360.82,-40603.28
-913100.45,-1596440.98,-1031.31,-404.75,727.15,-1650247.17,-925388.18,-40632.79
-912964.99,-1596337.44,-1040.97,-414.4,694.16,-1650153.82,-925207.13,-40733.37
-912989.13,-1596361.05,-1020.04,-389.99,699.79,-1650173.94,-925202.57,-40716.74
-913032.05,-1596386.8,-1008.51,-390.8,731.97,-1650197.01,-925316.57,-40640.57
-913068.53,-1596413.35,-1026.75,-416.28,745.12,-1650221.15,-925360.82,-40603.28
-913100.45,-1596440.98,-1031.31,-404.75,727.15,-1650247.17,-925388.18,-40632.79
-913115.73,-1596465.65,-1014.95,-389.19,711.86,-1650268.89,-925315.49,-40716.47
-913133.71,-1596489.79,-991.61,-363.44,715.88,-1650289.54,-925342.59,-40725.86
-913167.23,-1596515.81,-981.42,-380.61,727.95,-1650312.61,-925432.44,-40686.43
-913211.76,-1596543.17,-1001.0,-392.94,748.6,-1650336.48,-925476.43,-40600.87
-913238.58,-1596568.65,-1014.95,-391.6,740.29,-1650358.21,-925508.61,-40629.57
-913115.73,-1596465.65,-1014.95,-389.19,711.86,-1650268.89,-925315.49,-40716.47
-913133.71,-1596489.79,-991.61,-363.44,715.88,-1650289.54,-925342.59,-40725.86
-913167.23,-1596515.81,-981.42,-380.61,727.95,-1650312.61,-925432.44,-40686.43
-913211.76,-1596543.17,-1001.0,-392.94,748.6,-1650336.48,-925476.43,-40600.87
-913238.58,-1596568.65,-1014.95,-391.6,740.29,-1650358.21,-925508.61,-40629.57
-913247.97,-1596594.13,-1008.24,-371.75,724.46,-1650380.47,-925516.93,-40691.8
-913258.16,-1596617.73,-1004.76,-344.66,726.34,-1650403.27,-925431.9,-40719.15
-913294.1,-1596643.22,-1009.05,-363.44,736.8,-1650425.0,-925489.3,-40675.7
-913337.55,-1596666.28,-1031.31,-385.7,745.92,-1650445.38,-925585.86,-40590.41
-913375.91,-1596692.84,-1045.79,-395.63,735.73,-1650468.18,-925618.58,-40582.36
-913247.97,-1596594.13,-1008.24,-371.75,724.46,-1650380.47,-925516.93,-40691.8
-913258.16,-1596617.73,-1004.76,-344.66,726.34,-1650403.27,-925431.9,-40719.15
-913294.1,-1596643.22,-1009.05,-363.44,736.8,-1650425.0,-925489.3,-40675.7
-913337.55,-1596666.28,-1031.31,-385.7,745.92,-1650445.38,-925585.86,-40590.41
-913375.91,-1596692.84,-1045.79,-395.63,735.73,-1650468.18,-925618.58,-40582.36

-913520.21,-1596847.6,-1005.56,-365.32,719.1,-1650609.8,-925634.68,-40695.01
-913537.65,-1596873.89,-983.03,-361.03,720.98,-1650632.6,-925640.58,-40712.98
-913572.25,-1596899.63,-981.69,-359.42,746.73,-1650655.67,-925697.17,-40670.87
-913620.79,-1596924.31,-998.59,-373.9,756.38,-1650678.2,-925790.51,-40591.21
-913658.08,-1596951.4,-995.1,-382.75,735.73,-1650703.14,-925818.68,-40585.58
-913520.21,-1596847.6,-1005.56,-365.32,719.1,-1650609.8,-925634.68,-40695.01
-913537.65,-1596873.89,-983.03,-361.03,720.98,-1650632.6,-925640.58,-40712.98
-913572.25,-1596899.63,-981.69,-359.42,746.73,-1650655.67,-925697.17,-40670.87
-913620.79,-1596924.31,-998.59,-373.9,756.38,-1650678.2,-925790.51,-40591.21
-913658.08,-1596951.4,-995.1,-382.75,735.73,-1650703.14,-925818.68,-40585.58
-913672.83,-1596974.47,-988.39,-351.1,732.51,-1650723.26,-925757.79,-40643.25
-913695.09,-1596995.93,-974.71,-342.79,746.19,-1650742.84,-925745.99,-40648.61
-913720.84,-1597024.09,-976.86,-353.78,770.06,-1650768.05,-925822.16,-40634.13
-913760.0,-1597052.25,-997.25,-352.71,774.35,-1650793.0,-925878.49,-40574.05
-913784.95,-1597077.2,-998.59,-368.8,749.95,-1650816.06,-925832.09,-40597.65
-913672.83,-1596974.47,-988.39,-351.1,732.51,-1650723.26,-925757.79,-40643.25
-913695.09,-1596995.93,-974.71,-342.79,746.19,-1650742.84,-925745.99,-40648.61
-913720.84,-1597024.09,-976.86,-353.78,770.06,-1650768.05,-925822.16,-40634.13
-913760.0,-1597052.25,-997.25,-352.71,774.35,-1650793.0,-925878.49,-40574.05
-913784.95,-1597077.2,-998.59,-368.8,749.95,-1650816.06,-925832.09,-40597.65
-913797.55,-1597101.87,-985.71,-366.66,741.36,-1650838.32,-925759.4,-40652.9
-913814.99,-1597126.28,-982.22,-341.45,752.36,-1650860.59,-925729.09,-40664.44
-913852.81,-1597153.64,-982.49,-363.17,762.82,-1650883.65,-925853.01,-40599.53
-913898.67,-1597178.05,-994.03,-373.63,768.72,-1650906.18,-925949.57,-40538.1
-913932.47,-1597203.26,-998.05,-361.83,749.14,-1650929.52,-925970.76,-40520.67
-913797.55,-1597101.87,-985.71,-366.66,741.36,-1650838.32,-925759.4,-40652.9
-913814.99,-1597126.28,-982.22,-341.45,752.36,-1650860.59,-925729.09,-40664.44
-913852.81,-1597153.64,-982.49,-363.17,762.82,-1650883.65,-925853.01,-40599.53
-913898.67,-1597178.05,-994.03,-373.63,768.72,-1650906.18,-925949.57,-40538.1
-913932.47,-1597203.26,-998.05,-361.83,749.14,-1650929.52,-925970.76,-40520.67
-913941.86,-1597228.74,-989.47,-354.05,732.78,-1650951.78,-925852.74,-40626.62
-913948.02,-1597253.42,-979.27,-333.13,734.66,-1650974.04,-925770.4,-40686.43
-913984.77,-1597278.63,-983.03,-352.71,750.75,-1650995.77,-925897.27,-40623.94
-914033.59,-1597302.77,-1012.53,-366.12,765.5,-1651015.62,-926003.21,-40510.21
-914068.46,-1597330.4,-1024.34,-360.49,737.61,-1651042.44,-926040.5,-40519.87
-913941.86,-1597228.74,-989.47,-354.05,732.78,-1650951.78,-925852.74,-40626.62
-913948.02,-1597253.42,-979.27,-333.13,734.66,-1650974.04,-925770.4,-40686.43
-913984.77,-1597278.63,-983.03,-352.71,750.75,-1650995.77,-925897.27,-40623.94
-914033.59,-1597302.77,-1012.53,-366.12,765.5,-1651015.62,-926003.21,-40510.21
-914068.46,-1597330.4,-1024.34,-360.49,737.61,-1651042.44,-926040.5,-40519.87
-914078.38,-1597355.88,-1012.53,-347.08,717.22,-1651067.12,-925976.93,-40628.76
-914085.35,-1597380.82,-996.17,-341.71,722.32,-1651089.38,-925925.43,-40658.54
-914119.69,-1597408.18,-996.44,-335.28,738.68,-1651112.98,-925996.24,-40605.96
-914165.28,-1597434.47,-1013.88,-333.13,744.58,-1651136.32,-926099.24,-40526.3
-914193.18,-1597459.95,-1025.14,-358.88,735.46,-1651159.65,-926129.55,-40532.2
-914078.38,-1597355.88,-1012.53,-347.08,717.22,-1651067.12,-925976.93,-40628.76
-914085.35,-1597380.82,-996.17,-341.71,722.32,-1651089.38,-925925.43,-40658.54
-914119.69,-1597408.18,-996.44,-335.28,738.68,-1651112.98,-925996.24,-40605.96
-914165.28,-1597434.47,-1013.88,-333.13,744.58,-1651136.32,-926099.24,-40526.3
-914193.18,-1597459.95,-1025.14,-358.88,735.46,-1651159.65,-926129.55,-40532.2
-914207.39,-1597486.23,-1015.48,-362.9,727.95,-1651183.26,-926046.93,-40585.04
-914226.71,-1597511.45,-1008.24,-357.81,731.97,-1651205.25,-926019.84,-40600.6
-914266.4,-1597536.39,-1009.85,-359.68,746.19,-1651228.85,-926129.28,-40545.08
-914308.78,-1597562.41,-1026.75,-381.41,750.75,-1651252.46,-926196.33,-40479.9
-914338.29,-1597587.89,-1036.14,-367.46,730.63,-1651275.79,-926188.29,-40504.04
-914207.39,-1597486.23,-1015.48,-362.9,727.95,-1651183.26,-926046.93,-40585.04
-914226.71,-1597511.45,-1008.24,-357.81,731.97,-1651205.25,-926019.84,-40600.6
-914266.4,-1597536.39,-1009.85,-359.68,746.19,-1651228.85,-926129.28,-40545.08
-914308.78,-1597562.41,-1026.75,-381.41,750.75,-1651252.46,-926196.33,-40479.9
-914338.29,-1597587.89,-1036.14,-367.46,730.63,-1651275.79,-926188.29,-40504.04
-914351.16,-1597612.03,-1027.82,-372.02,722.59,-1651295.64,-926122.84,-40568.41
-914373.96,-1597634.83,-1000.2,-322.13,723.93,-1651316.56,-926163.07,-40583.43
-914410.71,-1597661.92,-988.93,-308.19,747.26,-1651340.97,-926257.75,-40534.62
-914452.28,-1597688.47,-992.15,-304.43,753.97,-1651366.99,-926302.28,-40494.38
-914482.86,-1597714.22,-998.32,-292.36,740.02,-1651391.13,-926310.86,-40521.21
-914351.16,-1597612.03,-1027.82,-372.02,722.59,-1651295.64,-926122.84,-40568.41
-914373.96,-1597634.83,-1000.2,-322.13,723.93,-1651316.56,-926163.07,-40583.43
-914410.71,-1597661.92,-988.93,-308.19,747.26,-1651340.97,-926257.75,-40534.62
-914452.28,-1597688.47,-992.15,-304.43,753.97,-1651366.99,-926302.28,-40494.38
-914482.86,-1597714.22,-998.32,-292.36,740.02,-1651391.13,-926310.86,-40521.21
-914490.37,-1597738.9,-986.78,-296.65,731.17,-1651412.05,-926199.01,-40606.5
-914512.09,-1597765.45,-974.71,-276.27,740.29,-1651435.12,-926183.99,-40606.5
-914534.89,-1597789.59,-972.03,-285.39,746.73,-1651458.18,-926223.15,-40588.53
-914581.56,-1597816.95,-976.86,-296.38,751.82,-1651483.4,-926363.17,-40509.14
-914615.89,-1597842.97,-982.49,-308.45,747.53,-1651507.54,-926356.19,-40522.28
-914490.37,-1597738.9,-986.78,-296.65,731.17,-1651412.05,-926199.01,-40606.5
-914512.09,-1597765.45,-974.71,-276.27,740.29,-1651435.12,-926183.99,-40606.5
-914534.89,-1597789.59,-972.03,-285.39,746.73,-1651458.18,-926223.15,-40588.53
-914581.56,-1597816.95,-976.86,-296.38,751.82,-1651483.4,-926363.17,-40509.14
-914615.89,-1597842.97,-982.49,-308.45,747.53,-1651507.54,-926356.19,-40522.28
-914633.33,-1597867.11,-960.77,-285.92,731.97,-1651528.73,-926334.73,-40574.05
-914649.69,-1597891.78,-933.68,-269.56,746.19,-1651550.18,-926302.01,-40605.43
-914683.49,-1597917.26,-938.5,-289.68,784.81,-1651574.05,-926366.65,-40538.37
-914722.91,-1597943.55,-952.18,-285.12,788.57,-1651596.85,-926450.07,-40491.17
-914744.64,-1597970.37,-964.79,-302.28,773.28,-1651622.07,-926413.32,-40530.86
-914633.33,-1597867.11,-960.77,-285.92,731.97,-1651528.73,-926334.73,-40574.05
-914649.69,-1597891.78,-933.68,-269.56,746.19,-1651550.18,-926302.01,-40605.43
-914683.49,-1597917.26,-938.5,-289.68,784.81,-1651574.05,-926366.65,-40538.37
-914722.91,-1597943.55,-952.18,-285.12,788.57,-1651596.85,-926450.07,-40491.17
-914744.64,-1597970.37,-964.79,-302.28,773.28,-1651622.07,-926413.32,-40530.86
-914747.32,-1597993.17,-954.06,-293.97,753.7,-1651642.45,-926302.82,-40600.6
-914765.03,-1598018.12,-937.97,-284.05,760.41,-1651666.32,-926286.99,-40615.62
-914799.36,-1598045.21,-938.77,-273.32,772.74,-1651690.73,-926342.24,-40570.83
-914847.91,-1598073.37,-953.79,-283.78,781.6,-1651716.21,-926492.98,-40458.17
-914877.95,-1598098.05,-957.28,-263.93,764.97,-1651738.47,-926498.62,-40486.34
-914747.32,-1597993.17,-954.06,-293.97,753.7,-1651642.45,-926302.82,-40600.6
-914765.03,-1598018.12,-937.97,-284.05,760.41,-1651666.32,-926286.99,-40615.62
-914799.36,-1598045.21,-938.77,-273.32,772.74,-1651690.73,-926342.24,-40570.83
-914847.91,-1598073.37,-953.79,-283.78,781.6,-1651716.21,-926492.98,-40458.17
-914877.95,-1598098.05,-957.28,-263.93,764.97,-1651738.47,-926498.62,-40486.34
-914883.31,-1598121.92,-950.57,-255.61,756.65,-1651759.66,-926370.41,-40577.27
-914893.5,-1598147.93,-933.68,-242.2,759.07,-1651782.19,-926305.5,-40611.33
-914940.44,-1598173.95,-933.41,-243.54,778.65,-1651807.41,-926443.1,-40548.3
-914984.16,-1598199.7,-939.85,-247.84,781.6,-1651831.01,-926546.36,-40461.93
-915010.72,-1598223.57,-948.7,-253.47,786.69,-1651851.93,-926530.8,-40469.71
-914883.31,-1598121.92,-950.57,-255.61,756.65,-1651759.66,-926370.41,-40577.27
-914893.5,-1598147.93,-933.68,-242.2,759.07,-1651782.19,-926305.5,-40611.33
-914940.44,-1598173.95,-933.41,-243.54,778.65,-1651807.41,-926443.1,-40548.3
-914984.16,-1598199.7,-939.85,-247.84,781.6,-1651831.01,-926546.36,-40461.93
-915010.72,-1598223.57,-948.7,-253.47,786.69,-1651851.93,-926530.8,-40469.71
-915036.73,-1598247.18,-938.5,-219.4,784.55,-1651875.0,-926550.12,-40505.11
-915054.17,-1598275.61,-928.58,-195.0,796.35,-1651901.28,-926523.83,-40543.74
-915083.14,-1598303.77,-932.07,-216.99,821.29,-1651926.76,-926633.26,-40507.53
-915122.83,-1598330.06,-942.26,-248.37,826.39,-1651949.83,-926675.64,-40455.22
-915151.26,-1598355.0,-951.65,-256.15,818.88,-1651973.44,-926689.86,-40461.13
-915036.73,-1598247.18,-938.5,-219.4,784.55,-1651875.0,-926550.12,-40505.11
-915054.17,-1598275.61,-928.58,-195.0,796.35,-1651901.28,-926523.83,-40543.74
-915083.14,-1598303.77,-932.07,-216.99,821.29,-1651926.76,-926633.26,-40507.53
-915122.83,-1598330.06,-942.26,-248.37,826.39,-1651949.83,-926675.64,-40455.22
-915151.26,-1598355.0,-951.65,-256.15,818.88,-1651973.44,-926689.86,-40461.13
-915159.58,-1598380.21,-946.55,-234.43,811.64,-1651996.23,-926632.73,-40520.67
-915171.11,-1598404.89,-933.68,-220.48,816.2,-1652019.3,-926626.83,-40526.57
-915200.35,-1598431.44,-934.75,-228.52,835.51,-1652042.37,-926711.58,-40489.29
-915243.53,-1598458.0,-949.5,-245.42,841.68,-1652066.78,-926774.88,-40429.48
-915274.38,-1598484.82,-954.87,-246.76,828.0,-1652091.18,-926784.81,-40428.13
-915159.58,-1598380.21,-946.55,-234.43,811.64,-1651996.23,-926632.73,-40520.67
-915171.11,-1598404.89,-933.68,-220.48,816.2,-1652019.3,-926626.83,-40526.57
-915200.35,-1598431.44,-934.75,-228.52,835.51,-1652042.37,-926711.58,-40489.29
-915243.53,-1598458.0,-949.5,-245.42,841.68,-1652066.78,-926774.88,-40429.48
-915274.38,-1598484.82,-954.87,-246.76,828.0,-1652091.18,-926784.81,-40428.13
-915290.2,-1598509.5,-941.46,-245.69,819.15,-1652113.18,-926757.99,-40483.39
-915300.39,-1598533.64,-927.78,-206.53,832.56,-1652135.98,-926743.23,-40497.07
-915328.56,-1598556.7,-929.92,-183.73,854.55,-1652157.43,-926824.51,-40466.22
-915363.96,-1598582.45,-947.36,-197.68,852.14,-1652181.04,-926848.38,-40421.97
-915396.42,-1598610.88,-964.79,-195.8,830.41,-1652207.06,-926881.37,-40398.63
-915290.2,-1598509.5,-941.46,-245.69,819.15,-1652113.18,-926757.99,-40483.39
-915300.39,-1598533.64,-927.78,-206.53,832.56,-1652135.98,-926743.23,-40497.07
-915328.56,-1598556.7,-929.92,-183.73,854.55,-1652157.43,-926824.51,-40466.22
-915363.96,-1598582.45,-947.36,-197.68,852.14,-1652181.04,-926848.38,-40421.97
-915396.42,-1598610.88,-964.79,-195.8,830.41,-1652207.06,-926881.37,-40398.63
-915404.46,-1598637.17,-958.35,-186.95,821.83,-1652230.39,-926887.27,-40471.32
-915417.07,-1598662.92,-945.75,-159.86,831.22,-1652253.99,-926893.44,-40500.82
-915439.33,-1598690.01,-947.62,-175.68,841.14,-1652278.4,-926940.65,-40483.92
-915475.81,-1598717.37,-968.01,-217.26,843.29,-1652302.81,-926991.61,-40420.62
-915509.61,-1598741.51,-974.98,-239.79,837.12,-1652325.34,-927010.11,-40415.53
-915404.46,-1598637.17,-958.35,-186.95,821.83,-1652230.39,-926887.27,-40471.32
-915417.07,-1598662.92,-945.75,-159.86,831.22,-1652253.99,-926893.44,-40500.82
-915439.33,-1598690.01,-947.62,-175.68,841.14,-1652278.4,-926940.65,-40483.92
-915475.81,-1598717.37,-968.01,-217.26,843.29,-1652302.81,-926991.61,-40420.62
-915509.61,-1598741.51,-974.98,-239.79,837.12,-1652325.34,-927010.11,-40415.53
-915518.46,-1598766.99,-959.43,-216.99,831.75,-1652348.94,-926954.32,-40465.69
-915530.26,-1598793.27,-944.14,-187.49,838.46,-1652372.55,-926918.65,-40483.92
-915564.06,-1598819.29,-946.02,-193.66,849.99,-1652396.69,-927005.82,-40428.4
-915601.07,-1598844.77,-951.65,-207.07,849.72,-1652420.02,-927088.97,-40381.2
-915630.31,-1598869.99,-953.26,-209.75,843.55,-1652443.36,-927119.55,-40394.34
-915518.46,-1598766.99,-959.43,-216.99,831.75,-1652348.94,-926954.32,-40465.69
-915530.26,-1598793.27,-944.14,-187.49,838.46,-1652372.55,-926918.65,-40483.92
-915564.06,-1598819.29,-946.02,-193.66,849.99,-1652396.69,-927005.82,-40428.4
-915601.07,-1598844.77,-951.65,-207.07,849.72,-1652420.02,-927088.97,-40381.2
-915630.31,-1598869.99,-953.26,-209.75,843.55,-1652443.36,-927119.55,-40394.34

-915774.34,-1599044.6,-940.38,-221.28,855.36,-1652601.34,-927169.71,-40461.13
-915782.66,-1599070.61,-926.17,-214.58,867.43,-1652627.63,-927137.25,-40472.93
-915805.99,-1599097.44,-930.19,-228.26,884.86,-1652654.98,-927227.11,-40455.76
-915845.69,-1599124.53,-943.87,-253.2,886.74,-1652681.54,-927295.23,-40383.61
-915879.21,-1599150.81,-950.04,-233.89,875.47,-1652707.29,-927302.48,-40377.98
-915774.34,-1599044.6,-940.38,-221.28,855.36,-1652601.34,-927169.71,-40461.13
-915782.66,-1599070.61,-926.17,-214.58,867.43,-1652627.63,-927137.25,-40472.93
-915805.99,-1599097.44,-930.19,-228.26,884.86,-1652654.98,-927227.11,-40455.76
-915845.69,-1599124.53,-943.87,-253.2,886.74,-1652681.54,-927295.23,-40383.61
-915879.21,-1599150.81,-950.04,-233.89,875.47,-1652707.29,-927302.48,-40377.98
-915899.33,-1599175.76,-933.14,-202.24,857.5,-1652730.89,-927297.11,-40412.85
-915914.35,-1599197.48,-910.88,-154.5,869.57,-1652752.35,-927248.03,-40424.65
-915944.93,-1599222.43,-897.47,-160.4,889.96,-1652777.83,-927326.88,-40383.07
-915983.02,-1599251.4,-907.93,-195.0,898.0,-1652805.99,-927412.98,-40363.76
-916007.69,-1599278.22,-927.24,-207.87,894.52,-1652830.94,-927430.69,-40377.71
-915899.33,-1599175.76,-933.14,-202.24,857.5,-1652730.89,-927297.11,-40412.85
-915914.35,-1599197.48,-910.88,-154.5,869.57,-1652752.35,-927248.03,-40424.65
-915944.93,-1599222.43,-897.47,-160.4,889.96,-1652777.83,-927326.88,-40383.07
-915983.02,-1599251.4,-907.93,-195.0,898.0,-1652805.99,-927412.98,-40363.76
-916007.69,-1599278.22,-927.24,-207.87,894.52,-1652830.94,-927430.69,-40377.71
-916012.25,-1599302.89,-915.97,-197.95,879.5,-1652855.61,-927382.94,-40430.28
-916018.69,-1599327.3,-903.1,-174.08,888.62,-1652879.75,-927375.43,-40465.15
-916044.71,-1599353.05,-912.49,-170.05,899.34,-1652903.89,-927418.88,-40410.16
-916086.28,-1599378.8,-935.55,-183.46,900.69,-1652927.77,-927493.99,-40343.11
-916111.49,-1599404.01,-940.65,-193.12,885.93,-1652950.03,-927535.83,-40358.13
-916012.25,-1599302.89,-915.97,-197.95,879.5,-1652855.61,-927382.94,-40430.28
-916018.69,-1599327.3,-903.1,-174.08,888.62,-1652879.75,-927375.43,-40465.15
-916044.71,-1599353.05,-912.49,-170.05,899.34,-1652903.89,-927418.88,-40410.16
-916086.28,-1599378.8,-935.55,-183.46,900.69,-1652927.77,-927493.99,-40343.11
-916111.49,-1599404.01,-940.65,-193.12,885.93,-1652950.03,-927535.83,-40358.13
-916119.0,-1599428.69,-933.95,-177.56,881.91,-1652972.83,-927482.18,-40420.36
-916127.86,-1599452.02,-911.15,-150.74,882.18,-1652995.63,-927436.05,-40439.94
-916153.87,-1599475.09,-915.17,-151.54,893.98,-1653019.23,-927539.05,-40388.71
-916187.94,-1599497.62,-922.41,-150.47,898.81,-1653040.69,-927614.42,-40345.79
-916218.51,-1599522.3,-928.04,-153.15,875.47,-1653064.02,-927627.29,-40353.03
-916119.0,-1599428.69,-933.95,-177.56,881.91,-1652972.83,-927482.18,-40420.36
-916127.86,-1599452.02,-911.15,-150.74,882.18,-1652995.63,-927436.05,-40439.94
-916153.87,-1599475.09,-915.17,-151.54,893.98,-1653019.23,-927539.05,-40388.71
-916187.94,-1599497.62,-922.41,-150.47,898.81,-1653040.69,-927614.42,-40345.79
-916218.51,-1599522.3,-928.04,-153.15,875.47,-1653064.02,-927627.29,-40353.03
-916223.07,-1599548.05,-922.68,-155.57,866.62,-1653087.89,-927547.63,-40423.31
-916227.9,-1599573.53,-907.66,-142.96,870.38,-1653110.96,-927510.88,-40448.79
-916251.24,-1599597.67,-911.95,-174.88,887.81,-1653135.1,-927608.25,-40406.14
-916290.93,-1599622.34,-924.56,-213.77,893.44,-1653157.9,-927684.15,-40343.64
-916321.78,-1599645.68,-929.92,-212.7,889.96,-1653179.89,-927705.61,-40336.94
-916223.07,-1599548.05,-922.68,-155.57,866.62,-1653087.89,-927547.63,-40423.31
-916227.9,-1599573.53,-907.66,-142.96,870.38,-1653110.96,-927510.88,-40448.79
-916251.24,-1599597.67,-911.95,-174.88,887.81,-1653135.1,-927608.25,-40406.14
-916290.93,-1599622.34,-924.56,-213.77,893.44,-1653157.9,-927684.15,-40343.64
-916321.78,-1599645.68,-929.92,-212.7,889.96,-1653179.89,-927705.61,-40336.94
-916334.12,-1599668.48,-914.1,-182.12,882.72,-1653201.62,-927655.19,-40388.97
-916345.38,-1599692.08,-897.2,-166.83,888.08,-1653224.42,-927621.39,-40410.7
-916373.28,-1599717.83,-900.15,-171.39,902.83,-1653247.48,-927697.56,-40379.32
-916414.05,-1599741.97,-917.05,-184.8,911.15,-1653270.02,-927775.08,-40327.01
-916440.6,-1599765.57,-922.14,-191.78,895.32,-1653291.74,-927777.76,-40329.43
-916334.12,-1599668.48,-914.1,-182.12,882.72,-1653201.62,-927655.19,-40388.97
-916345.38,-1599692.08,-897.2,-166.83,888.08,-1653224.42,-927621.39,-40410.7
-916373.28,-1599717.83,-900.15,-171.39,902.83,-1653247.48,-927697.56,-40379.32
-916414.05,-1599741.97,-917.05,-184.8,911.15,-1653270.02,-927775.08,-40327.01
-916440.6,-1599765.57,-922.14,-191.78,895.32,-1653291.74,-927777.76,-40329.43
-916450.53,-1599786.5,-907.93,-179.71,886.74,-1653309.44,-927791.44,-40368.05
-916466.89,-1599809.03,-887.27,-132.5,904.71,-1653329.83,-927821.48,-40392.73
-916499.34,-1599835.85,-887.01,-139.21,919.46,-1653353.7,-927861.18,-40355.71
-916538.5,-1599864.01,-903.1,-162.01,930.46,-1653380.25,-927916.43,-40325.67
-916569.62,-1599888.69,-909.81,-156.91,915.44,-1653403.59,-927947.01,-40324.6
-916450.53,-1599786.5,-907.93,-179.71,886.74,-1653309.44,-927791.44,-40368.05
-916466.89,-1599809.03,-887.27,-132.5,904.71,-1653329.83,-927821.48,-40392.73
-916499.34,-1599835.85,-887.01,-139.21,919.46,-1653353.7,-927861.18,-40355.71
-916538.5,-1599864.01,-903.1,-162.01,930.46,-1653380.25,-927916.43,-40325.67
-916569.62,-1599888.69,-909.81,-156.91,915.44,-1653403.59,-927947.01,-40324.6
-916579.27,-1599910.95,-899.08,-136.79,893.98,-1653426.39,-927923.14,-40383.07
-916581.69,-1599932.41,-892.91,-131.43,899.34,-1653448.65,-927843.75,-40408.55
-916605.02,-1599957.08,-898.27,-152.62,902.03,-1653470.38,-927868.42,-40385.22
-916650.62,-1599982.57,-910.88,-184.27,904.17,-1653492.1,-927989.93,-40318.7
-916685.49,-1600005.9,-915.97,-181.05,893.98,-1653513.02,-928027.48,-40306.63
-916579.27,-1599910.95,-899.08,-136.79,893.98,-1653426.39,-927923.14,-40383.07
-916581.69,-1599932.41,-892.91,-131.43,899.34,-1653448.65,-927843.75,-40408.55
-916605.02,-1599957.08,-898.27,-152.62,902.03,-1653470.38,-927868.42,-40385.22
-916650.62,-1599982.57,-910.88,-184.27,904.17,-1653492.1,-927989.93,-40318.7
-916685.49,-1600005.9,-915.97,-181.05,893.98,-1653513.02,-928027.48,-40306.63
-916697.56,-1600028.43,-910.61,-174.08,887.01,-1653534.21,-927954.25,-40375.29
-916698.36,-1600049.89,-892.37,-154.23,890.76,-1653554.06,-927947.55,-40412.58
-916733.23,-1600071.08,-889.96,-138.67,904.98,-1653571.76,-928018.36,-40347.4
-916768.9,-1600095.22,-905.51,-159.59,903.37,-1653592.69,-928095.07,-40318.7
-916795.99,-1600120.16,-920.0,-196.07,885.93,-1653618.17,-928127.52,-40318.7
-916697.56,-1600028.43,-910.61,-174.08,887.01,-1653534.21,-927954.25,-40375.29
-916698.36,-1600049.89,-892.37,-154.23,890.76,-1653554.06,-927947.55,-40412.58
-916733.23,-1600071.08,-889.96,-138.67,904.98,-1653571.76,-928018.36,-40347.4
-916768.9,-1600095.22,-905.51,-159.59,903.37,-1653592.69,-928095.07,-40318.7
-916795.99,-1600120.16,-920.0,-196.07,885.93,-1653618.17,-928127.52,-40318.7
-916807.26,-1600146.18,-906.59,-179.71,871.99,-1653640.96,-928043.57,-40370.47
-916819.87,-1600169.78,-894.78,-179.44,879.5,-1653661.89,-927984.29,-40389.51
-916843.2,-1600193.92,-911.95,-193.66,903.1,-1653683.34,-928078.44,-40342.3
-916885.58,-1600219.67,-935.02,-192.85,903.37,-1653706.95,-928166.68,-40266.13
-916920.72,-1600244.08,-942.53,-195.8,887.81,-1653728.4,-928160.25,-40297.51
-916807.26,-1600146.18,-906.59,-179.71,871.99,-1653640.96,-928043.57,-40370.47
-916819.87,-1600169.78,-894.78,-179.44,879.5,-1653661.89,-927984.29,-40389.51
-916843.2,-1600193.92,-911.95,-193.66,903.1,-1653683.34,-928078.44,-40342.3
-916885.58,-1600219.67,-935.02,-192.85,903.37,-1653706.95,-928166.68,-40266.13
-916920.72,-1600244.08,-942.53,-195.8,887.81,-1653728.4,-928160.25,-40297.51
-916931.71,-1600267.68,-938.24,-196.34,878.16,-1653748.79,-928082.46,-40369.66
-916940.3,-1600293.17,-929.92,-192.31,884.86,-1653770.78,-928071.73,-40377.17
-916968.19,-1600319.99,-937.43,-210.55,900.95,-1653794.12,-928173.93,-40340.96
-917007.62,-1600345.74,-953.79,-225.57,903.37,-1653817.99,-928217.11,-40293.22
-917033.1,-1600367.46,-961.3,-221.28,884.59,-1653837.3,-928213.35,-40299.12
-916931.71,-1600267.68,-938.24,-196.34,878.16,-1653748.79,-928082.46,-40369.66
-916940.3,-1600293.17,-929.92,-192.31,884.86,-1653770.78,-928071.73,-40377.17
-916968.19,-1600319.99,-937.43,-210.55,900.95,-1653794.12,-928173.93,-40340.96
-917007.62,-1600345.74,-953.79,-225.57,903.37,-1653817.99,-928217.11,-40293.22
-917033.1,-1600367.46,-961.3,-221.28,884.59,-1653837.3,-928213.35,-40299.12
-917059.39,-1600389.72,-946.02,-207.6,876.01,-1653856.88,-928215.77,-40314.14
-917080.58,-1600417.35,-932.6,-183.73,884.06,-1653880.75,-928229.18,-40351.69
-917104.72,-1600442.3,-934.75,-191.24,897.47,-1653903.55,-928299.18,-40333.45
-917135.03,-1600468.58,-951.11,-238.98,899.08,-1653926.35,-928316.35,-40282.22
-917170.16,-1600492.72,-958.62,-255.88,878.69,-1653946.2,-928376.7,-40276.86
-917059.39,-1600389.72,-946.02,-207.6,876.01,-1653856.88,-928215.77,-40314.14
-917080.58,-1600417.35,-932.6,-183.73,884.06,-1653880.75,-928229.18,-40351.69
-917104.72,-1600442.3,-934.75,-191.24,897.47,-1653903.55,-928299.18,-40333.45
-917135.03,-1600468.58,-951.11,-238.98,899.08,-1653926.35,-928316.35,-40282.22
-917170.16,-1600492.72,-958.62,-255.88,878.69,-1653946.2,-928376.7,-40276.86
-917182.77,-1600515.52,-958.35,-232.82,868.5,-1653965.24,-928350.68,-40340.43
-917189.21,-1600539.39,-943.87,-225.31,870.38,-1653982.41,-928330.83,-40355.18
-917214.69,-1600565.41,-935.82,-238.72,886.2,-1654004.14,-928372.41,-40306.36
-917257.87,-1600591.16,-949.5,-241.94,883.52,-1654025.06,-928450.19,-40244.94
-917289.79,-1600615.57,-961.57,-210.29,858.58,-1654046.25,-928477.01,-40263.98
-917182.77,-1600515.52,-958.35,-232.82,868.5,-1653965.24,-928350.68,-40340.43
-917189.21,-1600539.39,-943.87,-225.31,870.38,-1653982.41,-928330.83,-40355.18
-917214.69,-1600565.41,-935.82,-238.72,886.2,-1654004.14,-928372.41,-40306.36
-917257.87,-1600591.16,-949.5,-241.94,883.52,-1654025.06,-928450.19,-40244.94
-917289.79,-1600615.57,-961.57,-210.29,858.58,-1654046.25,-928477.01,-40263.98
-917301.32,-1600639.98,-962.38,-214.04,837.65,-1654068.51,-928449.66,-40352.23
-917304.81,-1600660.36,-937.7,-211.09,835.51,-1654086.21,-928383.14,-40371.27
-917340.75,-1600683.96,-938.24,-199.02,863.4,-1654104.72,-928490.96,-40308.24
-917385.01,-1600708.64,-947.09,-190.97,867.96,-1654127.52,-928555.87,-40248.69
-917417.46,-1600734.12,-950.31,-199.56,856.7,-1654151.12,-928585.38,-40266.4
-917301.32,-1600639.98,-962.38,-214.04,837.65,-1654068.51,-928449.66,-40352.23
-917304.81,-1600660.36,-937.7,-211.09,835.51,-1654086.21,-928383.14,-40371.27
-917340.75,-1600683.96,-938.24,-199.02,863.4,-1654104.72,-928490.96,-40308.24
-917385.01,-1600708.64,-947.09,-190.97,867.96,-1654127.52,-928555.87,-40248.69
-917417.46,-1600734.12,-950.31,-199.56,856.7,-1654151.12,-928585.38,-40266.4
-917432.21,-1600758.26,-931.8,-180.24,847.04,-1654172.58,-928548.63,-40329.97
-917447.5,-1600781.33,-918.39,-164.69,863.4,-1654194.04,-928512.96,-40332.11
-917477.54,-1600805.2,-915.97,-172.2,888.62,-1654213.88,-928586.72,-40316.02
-917512.41,-1600824.78,-924.02,-173.81,899.34,-1654232.12,-928661.28,-40263.45
-917537.36,-1600849.19,-925.36,-143.77,881.91,-1654254.39,-928642.24,-40262.37
-917432.21,-1600758.26,-931.8,-180.24,847.04,-1654172.58,-928548.63,-40329.97
-917447.5,-1600781.33,-918.39,-164.69,863.4,-1654194.04,-928512.96,-40332.11
-917477.54,-1600805.2,-915.97,-172.2,888.62,-1654213.88,-928586.72,-40316.02
-917512.41,-1600824.78,-924.02,-173.81,899.34,-1654232.12,-928661.28,-40263.45
-917537.36,-1600849.19,-925.36,-143.77,881.91,-1654254.39,-928642.24,-40262.37
-917556.94,-1600877.08,-911.68,-148.86,866.35,-1654280.14,-928647.87,-40316.82
-917565.25,-1600899.08,-895.86,-146.72,881.64,-1654301.06,-928559.36,-40352.23
-917585.64,-1600921.07,-901.76,-148.06,906.05,-1654321.98,-928640.9,-40321.65
-917616.48,-1600946.28,-913.29,-166.03,911.95,-1654346.12,-928702.86,-40278.47
-917646.52,-1600968.01,-915.71,-189.9,908.2,-1654366.5,-928732.36,-40262.11
-917556.94,-1600877.08,-911.68,-148.86,866.35,-1654280.14,-928647.87,-40316.82
-917565.25,-1600899.08,-895.86,-146.72,881.64,-1654301.06,-928559.36,-40352.23
-917585.64,-1600921.07,-901.76,-148.06,906.05,-1654321.98,-928640.9,-40321.65
-917616.48,-1600946.28,-913.29,-166.03,911.95,-1654346.12,-928702.86,-40278.47
-917646.52,-1600968.01,-915.71,-189.9,908.2,-1654366.5,-928732.36,-40262.11
-917656.98,-1600990.27,-895.86,-169.52,899.08,-1654389.3,-928699.91,-40299.92
-917661.27,-1601014.68,-879.5,-168.17,893.44,-1654413.71,-928661.82,-40331.57
-917684.61,-1601039.36,-878.16,-178.9,917.32,-1654437.85,-928752.21,-40302.07
-917719.75,-1601064.84,-896.39,-178.37,929.92,-1654459.31,-928805.32,-40240.92
-917758.64,-1601088.44,-907.93,-145.38,907.39,-1654479.96,-928852.26,-40224.02
-917656.98,-1600990.27,-895.86,-169.52,899.08,-1654389.3,-928699.91,-40299.92
-917661.27,-1601014.68,-879.5,-168.17,893.44,-1654413.71,-928661.82,-40331.57
-917684.61,-1601039.36,-878.16,-178.9,917.32,-1654437.85,-928752.21,-40302.07
-917719.75,-1601064.84,-896.39,-178.37,929.92,-1654459.31,-928805.32,-40240.92
-917758.64,-1601088.44,-907.93,-145.38,907.39,-1654479.96,-928852.26,-40224.02
-917768.56,-1601109.9,-898.27,-144.84,893.71,-1654499.0,-928812.56,-40302.61
-917769.64,-1601131.89,-881.91,-127.94,902.03,-1654520.73,-928749.8,-40331.04
-917792.7,-1601155.5,-883.52,-154.76,918.12,-1654542.99,-928770.45,-40294.02
-917834.55,-1601178.56,-902.83,-168.71,927.78,-1654563.91,-928889.0,-40213.02
-917862.71,-1601201.9,-908.2,-181.05,920.27,-1654584.3,-928906.97,-40244.4
-917768.56,-1601109.9,-898.27,-144.84,893.71,-1654499.0,-928812.56,-40302.61
-917769.64,-1601131.89,-881.91,-127.94,902.03,-1654520.73,-928749.8,-40331.04
-917792.7,-1601155.5,-883.52,-154.76,918.12,-1654542.99,-928770.45,-40294.02
-917834.55,-1601178.56,-902.83,-168.71,927.78,-1654563.91,-928889.0,-40213.02
-917862.71,-1601201.9,-908.2,-181.05,920.27,-1654584.3,-928906.97,-40244.4
-917872.36,-1601215.58,-899.61,-176.22,915.71,-1654603.07,-928871.84,-40305.83
-917872.1,-1601220.94,-881.91,-164.96,923.75,-1654620.51,-928785.74,-40325.14
-917904.82,-1601259.03,-886.74,-152.35,938.24,-1654642.77,-928919.31,-40275.52
-917943.44,-1601284.51,-903.64,-137.06,936.9,-1654664.23,-928966.79,-40214.63
-917977.78,-1601311.06,-914.63,-144.57,915.17,-1654687.56,-929007.56,-40222.95
-917872.36,-1601215.58,-899.61,-176.22,915.71,-1654603.07,-928871.84,-40305.83
-917872.1,-1601220.94,-881.91,-164.96,923.75,-1654620.51,-928785.74,-40325.14
-917904.82,-1601259.03,-886.74,-152.35,938.24,-1654642.77,-928919.31,-40275.52
-917943.44,-1601284.51,-903.64,-137.06,936.9,-1654664.23,-928966.79,-40214.63
-917977.78,-1601311.06,-914.63,-144.57,915.17,-1654687.56,-929007.56,-40222.95
-917988.24,-1601333.86,-911.68,-152.08,906.32,-1654707.68,-928905.9,-40283.83
-917999.23,-1601356.39,-904.98,-139.47,911.68,-1654727.8,-928889.54,-40291.61
-918022.03,-1601380.0,-909.81,-150.2,919.19,-1654748.18,-928964.37,-40251.64
-918059.85,-1601404.4,-928.31,-160.13,916.78,-1654768.57,-929055.84,-40196.66
-918076.48,-1601429.08,-935.82,-170.32,903.37,-1654790.02,-929033.84,-40237.16
-917988.24,-1601333.86,-911.68,-152.08,906.32,-1654707.68,-928905.9,-40283.83
-917999.23,-1601356.39,-904.98,-139.47,911.68,-1654727.8,-928889.54,-40291.61
-918022.03,-1601380.0,-909.81,-150.2,919.19,-1654748.18,-928964.37,-40251.64
-918059.85,-1601404.4,-928.31,-160.13,916.78,-1654768.57,-929055.84,-40196.66
-918076.48,-1601429.08,-935.82,-170.32,903.37,-1654790.02,-929033.84,-40237.16
-918089.62,-1601452.95,-933.14,-168.44,894.78,-1654810.14,-929035.72,-40273.1
-918104.64,-1601476.82,-925.09,-164.15,898.27,-1654830.26,-928998.97,-40282.49
-918133.34,-1601500.43,-934.21,-168.98,913.29,-1654849.84,-929087.49,-40238.5
-918161.77,-1601522.96,-944.41,-188.29,918.12,-1654867.81,-929059.59,-40203.9
-918197.45,-1601546.56,-958.09,-204.92,900.69,-1654886.85,-929134.69,-40198.0
-918089.62,-1601452.95,-933.14,-168.44,894.78,-1654810.14,-929035.72,-40273.1
-918104.64,-1601476.82,-925.09,-164.15,898.27,-1654830.26,-928998.97,-40282.49
-918133.34,-1601500.43,-934.21,-168.98,913.29,-1654849.84,-929087.49,-40238.5
-918161.77,-1601522.96,-944.41,-188.29,918.12,-1654867.81,-929059.59,-40203.9
-918197.45,-1601546.56,-958.09,-204.92,900.69,-1654886.85,-929134.69,-40198.0
-918211.13,-1601570.43,-948.97,-201.7,883.52,-1654905.89,-929118.87,-40248.43
-918219.17,-1601592.7,-927.24,-179.44,888.88,-1654923.06,-929088.29,-40261.3
-918239.02,-1601617.37,-919.73,-188.29,902.03,-1654942.91,-929148.64,-40240.65
-918285.69,-1601642.85,-937.16,-228.52,913.29,-1654964.1,-929211.14,-40173.32
-918317.61,-1601666.99,-952.99,-241.4,892.64,-1654985.56,-929262.9,-40189.95
-918211.13,-1601570.43,-948.97,-201.7,883.52,-1654905.89,-929118.87,-40248.43
-918219.17,-1601592.7,-927.24,-179.44,888.88,-1654923.06,-929088.29,-40261.3
-918239.02,-1601617.37,-919.73,-188.29,902.03,-1654942.91,-929148.64,-40240.65
-918285.69,-1601642.85,-937.16,-228.52,913.29,-1654964.1,-929211.14,-40173.32
-918317.61,-1601666.99,-952.99,-241.4,892.64,-1654985.56,-929262.9,-40189.95
-918321.1,-1601690.6,-949.77,-241.13,880.84,-1655004.87,-929257.81,-40239.31
-918328.07,-1601713.4,-939.04,-221.01,879.5,-1655026.06,-929178.68,-40254.33
-918358.11,-1601737.27,-946.82,-239.79,898.81,-1655047.78,-929258.07,-40210.34
-918396.2,-1601761.41,-961.3,-248.1,906.85,-1655068.44,-929344.71,-40153.74
-918425.97,-1601783.67,-969.89,-242.2,886.74,-1655087.75,-929375.02,-40165.28
-918321.1,-1601690.6,-949.77,-241.13,880.84,-1655004.87,-929257.81,-40239.31
-918328.07,-1601713.4,-939.04,-221.01,879.5,-1655026.06,-929178.68,-40254.33
-918358.11,-1601737.27,-946.82,-239.79,898.81,-1655047.78,-929258.07,-40210.34
-918396.2,-1601761.41,-961.3,-248.1,906.85,-1655068.44,-929344.71,-40153.74
-918425.97,-1601783.67,-969.89,-242.2,886.74,-1655087.75,-929375.02,-40165.28
-918435.63,-1601802.71,-948.16,-212.7,862.87,-1655105.45,-929350.61,-40220.8
-918443.94,-1601823.37,-931.53,-201.17,866.62,-1655125.3,-929292.94,-40224.29
-918483.37,-1601847.51,-926.7,-189.63,875.2,-1655148.1,-929422.76,-40169.03
-918522.8,-1601874.33,-943.33,-202.24,884.32,-1655173.58,-929467.02,-40135.51
-918549.62,-1601897.93,-945.21,-225.04,865.28,-1655195.84,-929453.07,-40154.01
-918435.63,-1601802.71,-948.16,-212.7,862.87,-1655105.45,-929350.61,-40220.8
-918443.94,-1601823.37,-931.53,-201.17,866.62,-1655125.3,-929292.94,-40224.29
-918483.37,-1601847.51,-926.7,-189.63,875.2,-1655148.1,-929422.76,-40169.03
-918522.8,-1601874.33,-943.33,-202.24,884.32,-1655173.58,-929467.02,-40135.51
-918549.62,-1601897.93,-945.21,-225.04,865.28,-1655195.84,-929453.07,-40154.01

-918683.2,-1602039.02,-969.35,-251.86,851.6,-1655323.78,-929550.17,-40172.52
-918697.68,-1602062.35,-961.57,-227.18,852.14,-1655343.9,-929576.99,-40183.52
-918726.38,-1602082.2,-952.72,-225.04,863.4,-1655364.55,-929639.22,-40129.6
-918753.47,-1602105.0,-967.47,-256.96,864.21,-1655384.94,-929611.05,-40107.07
-918792.09,-1602131.55,-989.2,-247.3,844.63,-1655408.54,-929690.45,-40076.23
-918683.2,-1602039.02,-969.35,-251.86,851.6,-1655323.78,-929550.17,-40172.52
-918697.68,-1602062.35,-961.57,-227.18,852.14,-1655343.9,-929576.99,-40183.52
-918726.38,-1602082.2,-952.72,-225.04,863.4,-1655364.55,-929639.22,-40129.6
-918753.47,-1602105.0,-967.47,-256.96,864.21,-1655384.94,-929611.05,-40107.07
-918792.09,-1602131.55,-989.2,-247.3,844.63,-1655408.54,-929690.45,-40076.23
-918809.53,-1602154.62,-990.27,-237.11,822.37,-1655430.0,-929678.64,-40125.31
-918826.69,-1602176.08,-981.15,-225.04,818.88,-1655450.38,-929655.31,-40149.99
-918849.22,-1602172.59,-984.37,-221.82,830.95,-1655471.57,-929671.13,-40135.24
-918890.53,-1602210.68,-1002.61,-229.06,831.22,-1655492.76,-929755.62,-40063.89
-918921.91,-1602242.33,-1014.41,-225.04,799.3,-1655513.95,-929809.8,-40069.79
-918809.53,-1602154.62,-990.27,-237.11,822.37,-1655430.0,-929678.64,-40125.31
-918826.69,-1602176.08,-981.15,-225.04,818.88,-1655450.38,-929655.31,-40149.99
-918849.22,-1602172.59,-984.37,-221.82,830.95,-1655471.57,-929671.13,-40135.24
-918890.53,-1602210.68,-1002.61,-229.06,831.22,-1655492.76,-929755.62,-40063.89
-918921.91,-1602242.33,-1014.41,-225.04,799.3,-1655513.95,-929809.8,-40069.79
-918945.78,-1602265.93,-1006.9,-218.06,781.33,-1655534.34,-929823.75,-40117.0
-918961.07,-1602288.46,-992.15,-212.97,790.18,-1655554.45,-929734.97,-40156.96
-918997.28,-1602312.06,-989.2,-203.85,808.42,-1655575.37,-929823.22,-40092.32
-919035.91,-1602334.06,-1004.22,-219.4,814.86,-1655596.3,-929897.51,-40038.95
-919068.36,-1602355.78,-1002.07,-242.74,808.15,-1655616.41,-929928.36,-40068.18
-918945.78,-1602265.93,-1006.9,-218.06,781.33,-1655534.34,-929823.75,-40117.0
-918961.07,-1602288.46,-992.15,-212.97,790.18,-1655554.45,-929734.97,-40156.96
-918997.28,-1602312.06,-989.2,-203.85,808.42,-1655575.37,-929823.22,-40092.32
-919035.91,-1602334.06,-1004.22,-219.4,814.86,-1655596.3,-929897.51,-40038.95
-919068.36,-1602355.78,-1002.07,-242.74,808.15,-1655616.41,-929928.36,-40068.18
-919086.33,-1602374.83,-981.69,-212.16,795.54,-1655634.92,-929892.95,-40112.71
-919106.45,-1602397.9,-971.5,-210.02,801.98,-1655656.65,-929906.1,-40130.68
-919134.61,-1602424.45,-977.4,-219.67,819.15,-1655680.52,-929981.47,-40108.41
-919176.19,-1602449.93,-990.81,-227.18,821.02,-1655702.51,-930026.26,-40029.83
-919205.96,-1602468.17,-996.71,-231.74,804.39,-1655723.7,-930021.7,-40042.43
-919086.33,-1602374.83,-981.69,-212.16,795.54,-1655634.92,-929892.95,-40112.71
-919106.45,-1602397.9,-971.5,-210.02,801.98,-1655656.65,-929906.1,-40130.68
-919134.61,-1602424.45,-977.4,-219.67,819.15,-1655680.52,-929981.47,-40108.41
-919176.19,-1602449.93,-990.81,-227.18,821.02,-1655702.51,-930026.26,-40029.83
-919205.96,-1602468.17,-996.71,-231.74,804.39,-1655723.7,-930021.7,-40042.43
-919224.2,-1602489.09,-999.66,-237.91,793.67,-1655746.23,-929986.83,-40090.71
-919245.92,-1602519.94,-996.17,-213.77,798.76,-1655767.15,-930043.69,-40100.9
-919279.99,-1602544.88,-994.83,-236.03,810.03,-1655791.02,-930108.07,-40064.69
-919317.0,-1602570.36,-1007.44,-255.08,810.83,-1655813.55,-930127.65,-40014.27
-919348.12,-1602594.5,-1017.63,-276.0,799.03,-1655835.01,-930138.38,-40028.49
-919224.2,-1602489.09,-999.66,-237.91,793.67,-1655746.23,-929986.83,-40090.71
-919245.92,-1602519.94,-996.17,-213.77,798.76,-1655767.15,-930043.69,-40100.9
-919279.99,-1602544.88,-994.83,-236.03,810.03,-1655791.02,-930108.07,-40064.69
-919317.0,-1602570.36,-1007.44,-255.08,810.83,-1655813.55,-930127.65,-40014.27
-919348.12,-1602594.5,-1017.63,-276.0,799.03,-1655835.01,-930138.38,-40028.49
-919371.18,-1602617.3,-1016.02,-269.29,784.81,-1655855.13,-930197.92,-40070.06
-919388.08,-1602640.1,-1002.61,-256.42,785.08,-1655874.17,-930201.94,-40103.86
-919421.07,-1602660.22,-1006.63,-243.81,790.18,-1655893.22,-930206.77,-40047.53
-919450.04,-1602685.7,-1035.06,-288.87,789.64,-1655916.28,-930221.52,-40024.73
-919491.35,-1602712.52,-1062.15,-325.62,770.06,-1655940.15,-930299.04,-39979.94
-919371.18,-1602617.3,-1016.02,-269.29,784.81,-1655855.13,-930197.92,-40070.06
-919388.08,-1602640.1,-1002.61,-256.42,785.08,-1655874.17,-930201.94,-40103.86
-919421.07,-1602660.22,-1006.63,-243.81,790.18,-1655893.22,-930206.77,-40047.53
-919450.04,-1602685.7,-1035.06,-288.87,789.64,-1655916.28,-930221.52,-40024.73
-919491.35,-1602712.52,-1062.15,-325.62,770.06,-1655940.15,-930299.04,-39979.94
-919517.9,-1602736.66,-1057.06,-307.65,740.29,-1655961.88,-930330.96,-40026.34
-919536.94,-1602760.53,-1039.36,-298.26,734.66,-1655982.53,-930339.0,-40053.16
-919569.93,-1602786.01,-1049.28,-319.72,754.51,-1656005.87,-930330.69,-40027.95
-919608.56,-1602809.61,-1082.54,-347.08,744.04,-1656027.06,-930403.65,-39965.45
-919641.82,-1602831.61,-1105.07,-363.17,715.08,-1656046.91,-930442.27,-39957.94
-919517.9,-1602736.66,-1057.06,-307.65,740.29,-1655961.88,-930330.96,-40026.34
-919536.94,-1602760.53,-1039.36,-298.26,734.66,-1655982.53,-930339.0,-40053.16
-919569.93,-1602786.01,-1049.28,-319.72,754.51,-1656005.87,-930330.69,-40027.95
-919608.56,-1602809.61,-1082.54,-347.08,744.04,-1656027.06,-930403.65,-39965.45
-919641.82,-1602831.61,-1105.07,-363.17,715.08,-1656046.91,-930442.27,-39957.94
-919671.05,-1602853.07,-1098.1,-351.64,689.6,-1656068.36,-930462.39,-39981.55
-919693.05,-1602867.82,-1074.22,-328.3,686.38,-1656088.48,-930388.63,-40000.59
-919731.4,-1602897.86,-1089.51,-333.13,714.0,-1656109.94,-930482.23,-39964.11
-919768.15,-1602922.8,-1121.16,-355.66,706.49,-1656131.13,-930542.85,-39942.65
-919801.14,-1602944.26,-1146.38,-371.49,671.36,-1656151.24,-930571.55,-39964.38
-919671.05,-1602853.07,-1098.1,-351.64,689.6,-1656068.36,-930462.39,-39981.55
-919693.05,-1602867.82,-1074.22,-328.3,686.38,-1656088.48,-930388.63,-40000.59
-919731.4,-1602897.86,-1089.51,-333.13,714.0,-1656109.94,-930482.23,-39964.11
-919768.15,-1602922.8,-1121.16,-355.66,706.49,-1656131.13,-930542.85,-39942.65
-919801.14,-1602944.26,-1146.38,-371.49,671.36,-1656151.24,-930571.55,-39964.38
-919827.16,-1602967.33,-1142.35,-355.39,648.56,-1656173.51,-930562.97,-39999.52
-919862.3,-1602992.54,-1128.67,-352.44,652.85,-1656195.5,-930612.59,-39982.35
-919897.43,-1603016.95,-1135.65,-386.24,669.48,-1656216.69,-930657.11,-39965.72
-919933.37,-1603041.63,-1171.59,-436.93,673.77,-1656239.22,-930690.37,-39926.56
-919962.34,-1603065.23,-1205.92,-458.66,649.63,-1656259.87,-930672.67,-39945.6
-919827.16,-1602967.33,-1142.35,-355.39,648.56,-1656173.51,-930562.97,-39999.52
-919862.3,-1602992.54,-1128.67,-352.44,652.85,-1656195.5,-930612.59,-39982.35
-919897.43,-1603016.95,-1135.65,-386.24,669.48,-1656216.69,-930657.11,-39965.72
-919933.37,-1603041.63,-1171.59,-436.93,673.77,-1656239.22,-930690.37,-39926.56
-919962.34,-1603065.23,-1205.92,-458.66,649.63,-1656259.87,-930672.67,-39945.6
-919994.26,-1603088.3,-1210.21,-450.61,619.59,-1656279.99,-930713.71,-39953.92
-920022.69,-1603109.49,-1190.63,-407.43,621.2,-1656299.84,-930768.69,-39955.26
-920058.63,-1603133.09,-1196.8,-434.25,641.32,-1656320.49,-930800.88,-39919.32
-920090.28,-1603158.3,-1226.84,-496.48,641.85,-1656340.34,-930792.03,-39918.25
-920122.2,-1603181.64,-1267.08,-557.63,621.2,-1656358.58,-930817.51,-39906.18
-919994.26,-1603088.3,-1210.21,-450.61,619.59,-1656279.99,-930713.71,-39953.92
-920022.69,-1603109.49,-1190.63,-407.43,621.2,-1656299.84,-930768.69,-39955.26
-920058.63,-1603133.09,-1196.8,-434.25,641.32,-1656320.49,-930800.88,-39919.32
-920090.28,-1603158.3,-1226.84,-496.48,641.85,-1656340.34,-930792.03,-39918.25
-920122.2,-1603181.64,-1267.08,-557.63,621.2,-1656358.58,-930817.51,-39906.18
-920150.63,-1603194.51,-1249.91,-524.64,588.21,-1656367.7,-930869.55,-39903.49
-920174.5,-1603218.11,-1226.84,-496.75,592.5,-1656389.96,-930890.73,-39955.26
-920212.06,-1603244.13,-1216.11,-495.94,621.2,-1656412.22,-930934.45,-39934.61
-920246.92,-1603268.27,-1253.93,-568.36,622.54,-1656433.68,-930968.52,-39909.39
-920265.97,-1603262.37,-1281.29,-593.3,584.72,-1656424.29,-930982.2,-39882.84
-920150.63,-1603194.51,-1249.91,-524.64,588.21,-1656367.7,-930869.55,-39903.49
-920174.5,-1603218.11,-1226.84,-496.75,592.5,-1656389.96,-930890.73,-39955.26
-920212.06,-1603244.13,-1216.11,-495.94,621.2,-1656412.22,-930934.45,-39934.61
-920246.92,-1603268.27,-1253.93,-568.36,622.54,-1656433.68,-930968.52,-39909.39
-920265.97,-1603262.37,-1281.29,-593.3,584.72,-1656424.29,-930982.2,-39882.84
-920306.47,-1603299.12,-1257.69,-561.12,554.95,-1656458.36,-931010.09,-39901.08
-920337.85,-1603336.67,-1217.72,-510.69,563.26,-1656497.52,-931007.68,-39940.78
-920364.4,-1603352.76,-1216.38,-534.83,600.55,-1656518.71,-931007.41,-39932.19
-920407.32,-1603384.95,-1243.2,-579.09,618.52,-1656540.16,-931097.26,-39876.67
-920441.65,-1603408.82,-1258.76,-577.21,597.6,-1656561.09,-931131.6,-39867.28
-920306.47,-1603299.12,-1257.69,-561.12,554.95,-1656458.36,-931010.09,-39901.08
-920337.85,-1603336.67,-1217.72,-510.69,563.26,-1656497.52,-931007.68,-39940.78
-920364.4,-1603352.76,-1216.38,-534.83,600.55,-1656518.71,-931007.41,-39932.19
-920407.32,-1603384.95,-1243.2,-579.09,618.52,-1656540.16,-931097.26,-39876.67
-920441.65,-1603408.82,-1258.76,-577.21,597.6,-1656561.09,-931131.6,-39867.28
-920468.47,-1603431.35,-1223.62,-517.4,572.65,-1656581.2,-931140.18,-39909.66
-920472.23,-1603454.15,-1196.53,-502.65,579.36,-1656600.78,-931048.18,-39998.98
-920511.66,-1603478.02,-1187.95,-510.96,611.28,-1656622.24,-931161.1,-39920.93
-920551.35,-1603501.62,-1202.7,-536.17,617.98,-1656642.09,-931222.26,-39873.72
-920583.54,-1603523.62,-1215.31,-538.86,595.45,-1656661.13,-931240.49,-39879.62
-920468.47,-1603431.35,-1223.62,-517.4,572.65,-1656581.2,-931140.18,-39909.66
-920472.23,-1603454.15,-1196.53,-502.65,579.36,-1656600.78,-931048.18,-39998.98
-920511.66,-1603478.02,-1187.95,-510.96,611.28,-1656622.24,-931161.1,-39920.93
-920551.35,-1603501.62,-1202.7,-536.17,617.98,-1656642.09,-931222.26,-39873.72
-920583.54,-1603523.62,-1215.31,-538.86,595.45,-1656661.13,-931240.49,-39879.62
-920597.22,-1603547.76,-1186.88,-505.86,585.53,-1656682.86,-931193.56,-39941.31
-920623.77,-1603571.9,-1137.26,-446.05,602.42,-1656704.58,-931256.05,-39936.49
-920656.5,-1603597.65,-1129.75,-448.2,645.88,-1656727.92,-931309.16,-39886.06
-920695.66,-1603621.52,-1151.74,-471.26,671.63,-1656748.04,-931351.81,-39844.75
-920723.82,-1603644.59,-1161.93,-494.6,652.05,-1656767.62,-931366.83,-39875.6
-920597.22,-1603547.76,-1186.88,-505.86,585.53,-1656682.86,-931193.56,-39941.31
-920623.77,-1603571.9,-1137.26,-446.05,602.42,-1656704.58,-931256.05,-39936.49
-920656.5,-1603597.65,-1129.75,-448.2,645.88,-1656727.92,-931309.16,-39886.06
-920695.66,-1603621.52,-1151.74,-471.26,671.63,-1656748.04,-931351.81,-39844.75
-920723.82,-1603644.59,-1161.93,-494.6,652.05,-1656767.62,-931366.83,-39875.6
-920745.82,-1603667.38,-1142.35,-453.83,642.66,-1656787.46,-931365.49,-39914.49
