-555234.2,-1210970.5,-1136.45,-33274.68,740.56,-1289355.38,-640386.02,-41269.54
-555252.17,-1210998.67,-1131.89,-33241.69,721.78,-1289382.21,-640387.9,-41333.65
-555262.09,-1211027.63,-1109.36,-33192.87,716.95,-1289409.57,-640402.12,-41362.35
-555290.79,-1211059.55,-1095.41,-33166.05,739.75,-1289438.53,-640471.32,-41314.6
-555329.95,-1211091.2,-1109.09,-33183.22,755.85,-1289468.57,-640509.94,-41281.34
-555234.2,-1210970.5,-1136.45,-33274.68,740.56,-1289355.38,-640386.02,-41269.54
-555252.17,-1210998.67,-1131.89,-33241.69,721.78,-1289382.21,-640387.9,-41333.65
-555262.09,-1211027.63,-1109.36,-33192.87,716.95,-1289409.57,-640402.12,-41362.35
-555290.79,-1211059.55,-1095.41,-33166.05,739.75,-1289438.53,-640471.32,-41314.6
-555329.95,-1211091.2,-1109.09,-33183.22,755.85,-1289468.57,-640509.94,-41281.34
-555368.84,-1211123.12,-1125.19,-33155.86,737.88,-1289497.27,-640545.61,-41285.9
-555380.91,-1211153.97,-1123.58,-33152.37,711.05,-1289526.24,-640494.65,-41375.76
-555386.01,-1211182.93,-1100.24,-33128.77,705.15,-1289553.6,-640380.39,-41417.33
-555417.66,-1211214.32,-1087.37,-33114.82,719.9,-1289583.1,-640432.16,-41379.51
-555473.45,-1211246.5,-1097.02,-33116.7,729.29,-1289612.07,-640583.97,-41303.07
-555368.84,-1211123.12,-1125.19,-33155.86,737.88,-1289497.27,-640545.61,-41285.9
-555380.91,-1211153.97,-1123.58,-33152.37,711.05,-1289526.24,-640494.65,-41375.76
-555386.01,-1211182.93,-1100.24,-33128.77,705.15,-1289553.6,-640380.39,-41417.33
-555417.66,-1211214.32,-1087.37,-33114.82,719.9,-1289583.1,-640432.16,-41379.51
-555473.45,-1211246.5,-1097.02,-33116.7,729.29,-1289612.07,-640583.97,-41303.07
-555508.86,-1211277.62,-1108.56,-33141.11,722.59,-1289641.04,-640636.01,-41304.95
-555518.78,-1211306.85,-1104.8,-33138.69,709.98,-1289669.47,-640604.89,-41384.88
-555522.53,-1211337.16,-1098.1,-33107.58,710.79,-1289697.9,-640521.48,-41431.82
-555548.55,-1211367.47,-1095.15,-33094.17,721.25,-1289727.14,-640557.15,-41399.9
-555600.32,-1211398.32,-1111.24,-33112.95,738.14,-1289754.23,-640687.77,-41308.17
-555508.86,-1211277.62,-1108.56,-33141.11,722.59,-1289641.04,-640636.01,-41304.95
-555518.78,-1211306.85,-1104.8,-33138.69,709.98,-1289669.47,-640604.89,-41384.88
-555522.53,-1211337.16,-1098.1,-33107.58,710.79,-1289697.9,-640521.48,-41431.82
-555548.55,-1211367.47,-1095.15,-33094.17,721.25,-1289727.14,-640557.15,-41399.9
-555600.32,-1211398.32,-1111.24,-33112.95,738.14,-1289754.23,-640687.77,-41308.17
-555632.77,-1211431.31,-1130.55,-33154.52,735.19,-1289784.27,-640707.89,-41315.14
-555641.62,-1211462.42,-1126.8,-33141.38,712.39,-1289813.24,-640644.32,-41400.44
-555645.92,-1211491.93,-1120.09,-33104.36,710.52,-1289841.13,-640553.93,-41451.4
-555668.98,-1211523.84,-1114.73,-33091.49,716.42,-1289871.44,-640667.92,-41417.33
-555717.53,-1211557.91,-1125.19,-33081.03,727.95,-1289903.36,-640780.04,-41337.13
-555632.77,-1211431.31,-1130.55,-33154.52,735.19,-1289784.27,-640707.89,-41315.14
-555641.62,-1211462.42,-1126.8,-33141.38,712.39,-1289813.24,-640644.32,-41400.44
-555645.92,-1211491.93,-1120.09,-33104.36,710.52,-1289841.13,-640553.93,-41451.4
-555668.98,-1211523.84,-1114.73,-33091.49,716.42,-1289871.44,-640667.92,-41417.33
-555717.53,-1211557.91,-1125.19,-33081.03,727.95,-1289903.36,-640780.04,-41337.13
-555758.03,-1211589.29,-1138.33,-33079.95,719.1,-1289932.33,-640821.61,-41315.41
-555763.13,-1211618.26,-1128.14,-33074.32,696.03,-1289958.61,-640784.33,-41418.41
-555776,-1211648.83,-1107.75,-33057.42,701.13,-1289988.12,-640672.48,-41458.64
-555805.24,-1211680.22,-1092.73,-33043.21,717.22,-1290018.69,-640754.83,-41404.46
-555851.91,-1211712.13,-1109.9,-33057.96,734.93,-1290049,-640887.86,-41332.04
-555758.03,-1211589.29,-1138.33,-33079.95,719.1,-1289932.33,-640821.61,-41315.41
-555763.13,-1211618.26,-1128.14,-33074.32,696.03,-1289958.61,-640784.33,-41418.41
-555776,-1211648.83,-1107.75,-33057.42,701.13,-1289988.12,-640672.48,-41458.64
-555805.24,-1211680.22,-1092.73,-33043.21,717.22,-1290018.69,-640754.83,-41404.46
-555851.91,-1211712.13,-1109.9,-33057.96,734.93,-1290049,-640887.86,-41332.04
-555884.9,-1211742.18,-1134.57,-33075.39,729.29,-1290077.7,-640923.54,-41331.5
-555896.7,-1211769,-1132.43,-33040.79,708.37,-1290104.26,-640889.47,-41387.29
-555903.68,-1211797.97,-1119.02,-33003.24,691.47,-1290131.62,-640872.31,-41433.43
-555929.16,-1211829.88,-1108.29,-32992.25,696.03,-1290161.92,-640932.93,-41407.95
-555974.76,-1211863.68,-1123.04,-33018.8,711.05,-1290194.11,-641009.1,-41336.06
-555884.9,-1211742.18,-1134.57,-33075.39,729.29,-1290077.7,-640923.54,-41331.5
-555896.7,-1211769,-1132.43,-33040.79,708.37,-1290104.26,-640889.47,-41387.29
-555903.68,-1211797.97,-1119.02,-33003.24,691.47,-1290131.62,-640872.31,-41433.43
-555929.16,-1211829.88,-1108.29,-32992.25,696.03,-1290161.92,-640932.93,-41407.95
-555974.76,-1211863.68,-1123.04,-33018.8,711.05,-1290194.11,-641009.1,-41336.06
-556013.38,-1211894.79,-1131.09,-33023.9,698.98,-1290224.15,-641056.58,-41328.02
-556028.67,-1211924.03,-1127.33,-32980.44,682.89,-1290252.58,-641059.79,-41393.73
-556036.45,-1211953.27,-1118.48,-32972.13,689.06,-1290280.75,-640927.29,-41458.64
-556063,-1211983.84,-1116.6,-32979.91,697.64,-1290310.25,-641008.83,-41434.5
-556097.87,-1212015.22,-1128.94,-32985,700.59,-1290338.95,-641133.29,-41382.2
-556013.38,-1211894.79,-1131.09,-33023.9,698.98,-1290224.15,-641056.58,-41328.02
-556028.67,-1211924.03,-1127.33,-32980.44,682.89,-1290252.58,-641059.79,-41393.73
-556036.45,-1211953.27,-1118.48,-32972.13,689.06,-1290280.75,-640927.29,-41458.64
-556063,-1211983.84,-1116.6,-32979.91,697.64,-1290310.25,-641008.83,-41434.5
-556097.87,-1212015.22,-1128.94,-32985,700.59,-1290338.95,-641133.29,-41382.2
-556139.44,-1212046.87,-1143.16,-32998.41,692.28,-1290369.53,-641163.33,-41341.96
-556153.93,-1212076.38,-1135.65,-32985.81,684.23,-1290398.23,-641106.2,-41428.6
-556161.97,-1212104.27,-1124.92,-32974.01,675.38,-1290424.51,-641043.16,-41470.17
-556196.84,-1212131.63,-1117.94,-32938.07,687.72,-1290452.41,-641133.82,-41397.75
-556245.93,-1212162.75,-1135.11,-32965.69,708.91,-1290482.18,-641236.82,-41329.89
-556139.44,-1212046.87,-1143.16,-32998.41,692.28,-1290369.53,-641163.33,-41341.96
-556153.93,-1212076.38,-1135.65,-32985.81,684.23,-1290398.23,-641106.2,-41428.6
-556161.97,-1212104.27,-1124.92,-32974.01,675.38,-1290424.51,-641043.16,-41470.17
-556196.84,-1212131.63,-1117.94,-32938.07,687.72,-1290452.41,-641133.82,-41397.75
-556245.93,-1212162.75,-1135.11,-32965.69,708.91,-1290482.18,-641236.82,-41329.89
,,,,,,,
-556397.2,-1212342.45,-1181.24,-32978.3,662.24,-1290654.65,-641344.11,-41348.13
-556413.56,-1212371.42,-1166.22,-32964.08,633.81,-1290681.74,-641359.93,-41408.21
-556431.8,-1212400.12,-1148.79,-32913.39,637.56,-1290709.1,-641311.39,-41434.5
-556446.29,-1212430.7,-1143.16,-32929.21,652.85,-1290738.6,-641245.67,-41460.78
-556488.4,-1212461.01,-1164.35,-32968.64,670.28,-1290766.76,-641374.15,-41390.78
-556526.75,-1212488.9,-1181.24,-32989.03,669.21,-1290793.05,-641444.96,-41363.42
-556551.7,-1212515.99,-1178.56,-32967.3,660.63,-1290817.46,-641426.72,-41384.88
-556547.41,-1212544.69,-1163.27,-32949.6,663.58,-1290845.62,-641362.62,-41470.44
-556563.77,-1212577.68,-1150.4,-32940.75,665.99,-1290877.54,-641448.45,-41464
-556606.42,-1212611.21,-1162.74,-32973.74,671.63,-1290907.04,-641539.11,-41395.88
-556526.75,-1212488.9,-1181.24,-32989.03,669.21,-1290793.05,-641444.96,-41363.42
-556551.7,-1212515.99,-1178.56,-32967.3,660.63,-1290817.46,-641426.72,-41384.88
-556547.41,-1212544.69,-1163.27,-32949.6,663.58,-1290845.62,-641362.62,-41470.44
-556563.77,-1212577.68,-1150.4,-32940.75,665.99,-1290877.54,-641448.45,-41464
-556606.42,-1212611.21,-1162.74,-32973.74,671.63,-1290907.04,-641539.11,-41395.88
-556640.75,-1212642.32,-1177.22,-32977.49,664.92,-1290935.74,-641575.85,-41376.3
-556649.33,-1212671.02,-1167.3,-32962.74,644.8,-1290964.44,-641539.11,-41450.59
-556657.65,-1212701.6,-1150.4,-32901.32,648.02,-1290991.53,-641507.99,-41476.07
-556680.71,-1212733.25,-1142.89,-32879.86,660.09,-1291021.04,-641558.42,-41455.96
-556719.87,-1212764.9,-1152.01,-32926,671.09,-1291052.15,-641646.39,-41400.97
-556640.75,-1212642.32,-1177.22,-32977.49,664.92,-1290935.74,-641575.85,-41376.3
-556649.33,-1212671.02,-1167.3,-32962.74,644.8,-1290964.44,-641539.11,-41450.59
-556657.65,-1212701.6,-1150.4,-32901.32,648.02,-1290991.53,-641507.99,-41476.07
-556680.71,-1212733.25,-1142.89,-32879.86,660.09,-1291021.04,-641558.42,-41455.96
-556719.87,-1212764.9,-1152.01,-32926,671.09,-1291052.15,-641646.39,-41400.97
-556761.45,-1212795.75,-1165.96,-32944.23,669.48,-1291081.65,-641689.31,-41368.25
-556784.51,-1212826.86,-1153.62,-32905.34,659.02,-1291109.28,-641688.5,-41421.36
-556797.39,-1212857.17,-1129.75,-32871.28,667.87,-1291137.44,-641642.1,-41465.61
-556816.97,-1212888.28,-1128.14,-32858.67,695.5,-1291164.53,-641694.67,-41438.79
-556852.64,-1212921.81,-1145.3,-32882.81,700.59,-1291195.11,-641760.66,-41386.22
-556761.45,-1212795.75,-1165.96,-32944.23,669.48,-1291081.65,-641689.31,-41368.25
-556784.51,-1212826.86,-1153.62,-32905.34,659.02,-1291109.28,-641688.5,-41421.36
-556797.39,-1212857.17,-1129.75,-32871.28,667.87,-1291137.44,-641642.1,-41465.61
-556816.97,-1212888.28,-1128.14,-32858.67,695.5,-1291164.53,-641694.67,-41438.79
-556852.64,-1212921.81,-1145.3,-32882.81,700.59,-1291195.11,-641760.66,-41386.22
-556884.02,-1212953.73,-1156.84,-32899.44,680.74,-1291225.69,-641774.34,-41386.22
-556896.9,-1212985.65,-1149.86,-32879.86,667.07,-1291254.39,-641769.51,-41444.96
-556899.58,-1213015.96,-1137.26,-32857.6,667.33,-1291281.75,-641645.86,-41500.21
-556921.84,-1213047.87,-1132.16,-32857.6,673.5,-1291311.52,-641731.42,-41469.64
-556960.47,-1213081.94,-1146.64,-32882.01,686.11,-1291341.29,-641856.14,-41395.88
-556884.02,-1212953.73,-1156.84,-32899.44,680.74,-1291225.69,-641774.34,-41386.22
-556896.9,-1212985.65,-1149.86,-32879.86,667.07,-1291254.39,-641769.51,-41444.96
-556899.58,-1213015.96,-1137.26,-32857.6,667.33,-1291281.75,-641645.86,-41500.21
-556921.84,-1213047.87,-1132.16,-32857.6,673.5,-1291311.52,-641731.42,-41469.64
-556960.47,-1213081.94,-1146.64,-32882.01,686.11,-1291341.29,-641856.14,-41395.88
-556999.36,-1213114.93,-1164.62,-32898.37,679.4,-1291370.26,-641907.91,-41376.83
-557015.45,-1213146.04,-1146.64,-32885.49,661.43,-1291399.23,-641895.57,-41437.99
-557022.96,-1213175.01,-1130.28,-32846.07,663.85,-1291427.12,-641816.45,-41492.97
-557044.96,-1213206.66,-1131.62,-32836.95,678.87,-1291455.55,-641852.12,-41477.15
-557090.82,-1213238.58,-1156.03,-32853.04,693.08,-1291483.72,-641967.99,-41390.24
-556999.36,-1213114.93,-1164.62,-32898.37,679.4,-1291370.26,-641907.91,-41376.83
-557015.45,-1213146.04,-1146.64,-32885.49,661.43,-1291399.23,-641895.57,-41437.99
-557022.96,-1213175.01,-1130.28,-32846.07,663.85,-1291427.12,-641816.45,-41492.97
-557044.96,-1213206.66,-1131.62,-32836.95,678.87,-1291455.55,-641852.12,-41477.15
-557090.82,-1213238.58,-1156.03,-32853.04,693.08,-1291483.72,-641967.99,-41390.24
-557130.25,-1213267.82,-1175.34,-32866.18,689.86,-1291510.27,-642016.54,-41366.64
-557143.13,-1213298.39,-1166.76,-32865.65,676.99,-1291538.43,-641968.53,-41451.4
-557143.66,-1213331.65,-1143.96,-32834,659.56,-1291569.28,-641920.78,-41525.69
-557177.19,-1213365.18,-1133.5,-32800.47,666.8,-1291599.59,-642006.61,-41461.05
-557218.76,-1213397.63,-1145.84,-32829.17,683.16,-1291629.36,-642089.76,-41392.66
-557130.25,-1213267.82,-1175.34,-32866.18,689.86,-1291510.27,-642016.54,-41366.64
-557143.13,-1213298.39,-1166.76,-32865.65,676.99,-1291538.43,-641968.53,-41451.4
-557143.66,-1213331.65,-1143.96,-32834,659.56,-1291569.28,-641920.78,-41525.69
-557177.19,-1213365.18,-1133.5,-32800.47,666.8,-1291599.59,-642006.61,-41461.05
-557218.76,-1213397.63,-1145.84,-32829.17,683.16,-1291629.36,-642089.76,-41392.66
-557256.85,-1213430.09,-1152.55,-32846.33,678.33,-1291659.13,-642136.17,-41393.19
-557267.58,-1213460.67,-1131.09,-32819.78,668.94,-1291687.03,-642126.24,-41469.37
-557279.11,-1213490.44,-1100.24,-32798.05,671.63,-1291714.92,-642029.14,-41526.23
-557306.74,-1213523.16,-1092.73,-32793.76,697.11,-1291744.7,-642095.13,-41501.02
-557351.53,-1213555.89,-1106.41,-32802.61,713.74,-1291774.2,-642193.03,-41416.26
-557256.85,-1213430.09,-1152.55,-32846.33,678.33,-1291659.13,-642136.17,-41393.19
-557267.58,-1213460.67,-1131.09,-32819.78,668.94,-1291687.03,-642126.24,-41469.37
-557279.11,-1213490.44,-1100.24,-32798.05,671.63,-1291714.92,-642029.14,-41526.23
-557306.74,-1213523.16,-1092.73,-32793.76,697.11,-1291744.7,-642095.13,-41501.02
-557351.53,-1213555.89,-1106.41,-32802.61,713.74,-1291774.2,-642193.03,-41416.26
-557390.96,-1213588.07,-1113.39,-32798.05,706.76,-1291803.44,-642230.58,-41393.19
-557402.49,-1213617.84,-1099.17,-32783.03,692.81,-1291832.67,-642200.81,-41468.03
-557414.56,-1213646.81,-1084.69,-32744.95,704.35,-1291858.15,-642160.04,-41492.17
-557439.78,-1213678.46,-1079.32,-32742.8,718.83,-1291887.12,-642257.67,-41458.1
-557474.11,-1213712.53,-1090.85,-32759.16,721.78,-1291918.77,-642328.75,-41404.19
,,,,,,,
-557510.32,-1213743.64,-1105.61,-32741.46,707.03,-1291948.28,-642363.35,-41399.09
-557522.66,-1213774.49,-1090.32,-32726.17,693.62,-1291975.9,-642275.64,-41480.9
-557519.44,-1213805.33,-1076.91,-32715.17,697.11,-1292003.53,-642124.36,-41554.66
-557542.24,-1213838.32,-1073.69,-32715.44,714,-1292033.3,-642210.19,-41526.5
-557586.76,-1213868.9,-1092.73,-32702.03,725.81,-1292063.34,-642360.67,-41442.55
-557623.51,-1213900.28,-1094.07,-32702.57,711.32,-1292092.58,-642396.88,-41415.19
-557629.68,-1213932.74,-1084.95,-32695.33,701.13,-1292121.55,-642284.49,-41510.94
-557632.36,-1213962.78,-1062.42,-32653.75,698.45,-1292149.44,-642240.23,-41563.25
-557657.84,-1213993.35,-1052.5,-32631.49,719.9,-1292177.87,-642347.25,-41529.72
-557702.37,-1214024.74,-1074.22,-32658.31,741.9,-1292205.5,-642455.08,-41442.81
-557623.51,-1213900.28,-1094.07,-32702.57,711.32,-1292092.58,-642396.88,-41415.19
-557629.68,-1213932.74,-1084.95,-32695.33,701.13,-1292121.55,-642284.49,-41510.94
-557632.36,-1213962.78,-1062.42,-32653.75,698.45,-1292149.44,-642240.23,-41563.25
-557657.84,-1213993.35,-1052.5,-32631.49,719.9,-1292177.87,-642347.25,-41529.72
-557702.37,-1214024.74,-1074.22,-32658.31,741.9,-1292205.5,-642455.08,-41442.81
-557733.75,-1214054.78,-1085.76,-32667.97,736.53,-1292233.13,-642476.27,-41431.28
-557742.87,-1214086.96,-1072.08,-32655.36,714.81,-1292264.51,-642359.06,-41503.43
-557747.96,-1214117.54,-1053.3,-32606.28,711.05,-1292292.4,-642250.43,-41564.85
-557768.08,-1214148.92,-1043.11,-32586.7,729.02,-1292320.57,-642346.72,-41535.08
-557808.05,-1214180.84,-1049.01,-32579.99,739.22,-1292348.46,-642504.97,-41461.59
-557733.75,-1214054.78,-1085.76,-32667.97,736.53,-1292233.13,-642476.27,-41431.28
-557742.87,-1214086.96,-1072.08,-32655.36,714.81,-1292264.51,-642359.06,-41503.43
-557747.96,-1214117.54,-1053.3,-32606.28,711.05,-1292292.4,-642250.43,-41564.85
-557768.08,-1214148.92,-1043.11,-32586.7,729.02,-1292320.57,-642346.72,-41535.08
-557808.05,-1214180.84,-1049.01,-32579.99,739.22,-1292348.46,-642504.97,-41461.59
-557832.45,-1214210.34,-1045.79,-32575.43,742.44,-1292376.36,-642516.23,-41494.31
-557837.82,-1214240.12,-1022.73,-32528.49,733.05,-1292404.52,-642380.78,-41572.63
-557834.33,-1214270.16,-979.01,-32478.6,732.51,-1292432.42,-642207.24,-41641.57
-557837.28,-1214301,-948.16,-32425.76,766.58,-1292460.04,-642215.29,-41630.57
-557871.35,-1214333.73,-952.45,-32400.28,800.91,-1292491.42,-642416.19,-41543.13
-557832.45,-1214210.34,-1045.79,-32575.43,742.44,-1292376.36,-642516.23,-41494.31
-557837.82,-1214240.12,-1022.73,-32528.49,733.05,-1292404.52,-642380.78,-41572.63
-557834.33,-1214270.16,-979.01,-32478.6,732.51,-1292432.42,-642207.24,-41641.57
-557837.28,-1214301,-948.16,-32425.76,766.58,-1292460.04,-642215.29,-41630.57
-557871.35,-1214333.73,-952.45,-32400.28,800.91,-1292491.42,-642416.19,-41543.13
-557911.85,-1214365.64,-968.81,-32373.73,804.66,-1292521.2,-642537.96,-41485.73
-557939.74,-1214396.22,-977.13,-32359.24,806.27,-1292548.29,-642537.69,-41481.71
-557946.18,-1214425.19,-984.1,-32347.44,818.88,-1292573.77,-642469.83,-41529.72
-557990.17,-1214457.11,-1012.27,-32339.13,832.56,-1292604.61,-642580.34,-41446.03
-558041.4,-1214491.44,-1078.25,-32341.81,832.83,-1292636.8,-642643.1,-41413.31
-557911.85,-1214365.64,-968.81,-32373.73,804.66,-1292521.2,-642537.96,-41485.73
-557939.74,-1214396.22,-977.13,-32359.24,806.27,-1292548.29,-642537.69,-41481.71
-557946.18,-1214425.19,-984.1,-32347.44,818.88,-1292573.77,-642469.83,-41529.72
-557990.17,-1214457.11,-1012.27,-32339.13,832.56,-1292604.61,-642580.34,-41446.03
-558041.4,-1214491.44,-1078.25,-32341.81,832.83,-1292636.8,-642643.1,-41413.31
-558081.09,-1214524.7,-1120.9,-32366.75,773.82,-1292666.3,-642680.92,-41423.77
-558090.48,-1214553.13,-1110.7,-32366.22,711.59,-1292694.74,-642648.2,-41523.82
-558088.87,-1214582.37,-1092.2,-32335.91,698.45,-1292721.83,-642539.03,-41603.48
-558122.94,-1214614.28,-1074.22,-32314.99,705.42,-1292751.33,-642638.27,-41539.64
-558164.24,-1214647.01,-1091.66,-32330.01,728.22,-1292782.44,-642743.42,-41490.29
-558081.09,-1214524.7,-1120.9,-32366.75,773.82,-1292666.3,-642680.92,-41423.77
-558090.48,-1214553.13,-1110.7,-32366.22,711.59,-1292694.74,-642648.2,-41523.82
-558088.87,-1214582.37,-1092.2,-32335.91,698.45,-1292721.83,-642539.03,-41603.48
-558122.94,-1214614.28,-1074.22,-32314.99,705.42,-1292751.33,-642638.27,-41539.64
-558164.24,-1214647.01,-1091.66,-32330.01,728.22,-1292782.44,-642743.42,-41490.29
-558206.62,-1214676.51,-1105.34,-32282.53,720.98,-1292811.95,-642791.16,-41454.08
-558221.37,-1214706.82,-1096.22,-32242.84,697.11,-1292840.11,-642779.63,-41527.04
-558216.01,-1214736.06,-1083.34,-32225.13,695.5,-1292868.54,-642645.25,-41617.69
-558236.93,-1214766.9,-1080.13,-32242.57,710.25,-1292898.58,-642695.41,-41578.27
-558287.62,-1214797.21,-1101.05,-32260.27,732.51,-1292928.09,-642844.54,-41479.83
-558206.62,-1214676.51,-1105.34,-32282.53,720.98,-1292811.95,-642791.16,-41454.08
-558221.37,-1214706.82,-1096.22,-32242.84,697.11,-1292840.11,-642779.63,-41527.04
-558216.01,-1214736.06,-1083.34,-32225.13,695.5,-1292868.54,-642645.25,-41617.69
-558236.93,-1214766.9,-1080.13,-32242.57,710.25,-1292898.58,-642695.41,-41578.27
-558287.62,-1214797.21,-1101.05,-32260.27,732.51,-1292928.09,-642844.54,-41479.83
-558330.54,-1214830.2,-1113.39,-32233.18,722.59,-1292958.66,-642892.82,-41463.47
-558344.76,-1214861.05,-1097.83,-32190.27,698.98,-1292987.36,-642884.5,-41541.25
-558347.44,-1214890.28,-1080.66,-32162.91,701.13,-1293013.92,-642792.5,-41603.21
-558373.72,-1214922.47,-1074.22,-32164.52,712.93,-1293044.23,-642836.49,-41565.39
-558420.39,-1214954.39,-1088.71,-32177.39,726.34,-1293075.34,-642949.41,-41495.92
-558330.54,-1214830.2,-1113.39,-32233.18,722.59,-1292958.66,-642892.82,-41463.47
-558344.76,-1214861.05,-1097.83,-32190.27,698.98,-1292987.36,-642884.5,-41541.25
-558347.44,-1214890.28,-1080.66,-32162.91,701.13,-1293013.92,-642792.5,-41603.21
-558373.72,-1214922.47,-1074.22,-32164.52,712.93,-1293044.23,-642836.49,-41565.39
-558420.39,-1214954.39,-1088.71,-32177.39,726.34,-1293075.34,-642949.41,-41495.92
-558452.58,-1214981.75,-1099.44,-32179,716.95,-1293105.11,-642990.99,-41501.29
-558461.97,-1214992.48,-1093,-32172.29,706.23,-1293133.81,-642922.05,-41572.63
-558479.67,-1215035.66,-1080.13,-32122.94,708.37,-1293163.59,-642888.52,-41579.34
-558495.5,-1215072.67,-1084.95,-32122.67,725,-1293194.16,-642935.2,-41570.76
-558532.24,-1215105.13,-1104.53,-32128.57,728.22,-1293224.74,-643054.55,-41533.2
,,,,,,,
-558563.89,-1215134.63,-1121.97,-32131.52,709.71,-1293253.71,-643060.19,-41537.5
-558579.45,-1215163.06,-1123.04,-32154.32,698.18,-1293281.33,-643060.99,-41564.05
-558594.2,-1215191.5,-1099.71,-32094.78,700.59,-1293308.96,-643115.17,-41568.34
-558622.1,-1215225.83,-1091.12,-32045.69,719.64,-1293341.95,-643157.55,-41542.59
-558654.55,-1215260.7,-1106.95,-32078.95,734.66,-1293374.94,-643165.6,-41536.42
-558563.89,-1215134.63,-1121.97,-32131.52,709.71,-1293253.71,-643060.19,-41537.5
-558579.45,-1215163.06,-1123.04,-32154.32,698.18,-1293281.33,-643060.99,-41564.05
-558594.2,-1215191.5,-1099.71,-32094.78,700.59,-1293308.96,-643115.17,-41568.34
-558622.1,-1215225.83,-1091.12,-32045.69,719.64,-1293341.95,-643157.55,-41542.59
-558654.55,-1215260.7,-1106.95,-32078.95,734.66,-1293374.94,-643165.6,-41536.42
-558695.86,-1215291.27,-1110.43,-32083.78,717.76,-1293405.79,-643214.41,-41499.68
-558709.54,-1215321.58,-1094.07,-32064.74,684.5,-1293433.68,-643199.93,-41558.15
-558710.61,-1215351.62,-1070.74,-32044.35,684.23,-1293462.12,-643117.85,-41650.42
-558734.75,-1215382.74,-1069.4,-32028.26,701.93,-1293492.42,-643194.56,-41626.28
-558790,-1215416.27,-1088.71,-32035.5,720.44,-1293524.88,-643315,-41513.09
-558695.86,-1215291.27,-1110.43,-32083.78,717.76,-1293405.79,-643214.41,-41499.68
-558709.54,-1215321.58,-1094.07,-32064.74,684.5,-1293433.68,-643199.93,-41558.15
-558710.61,-1215351.62,-1070.74,-32044.35,684.23,-1293462.12,-643117.85,-41650.42
-558734.75,-1215382.74,-1069.4,-32028.26,701.93,-1293492.42,-643194.56,-41626.28
-558790,-1215416.27,-1088.71,-32035.5,720.44,-1293524.88,-643315,-41513.09
-558831.04,-1215447.11,-1096.76,-32032.82,712.39,-1293555.46,-643345.3,-41500.48
-558842.04,-1215477.15,-1081.73,-31993.39,693.35,-1293585.76,-643301.58,-41584.17
-558847.67,-1215507.46,-1066.71,-31975.96,699.52,-1293614.2,-643202.34,-41661.15
-558873.15,-1215538.04,-1075.03,-31987.22,723.12,-1293642.9,-643285.49,-41628.42
-558919.55,-1215571.57,-1091.66,-32017.26,732.51,-1293674.01,-643415.85,-41529.99
-558831.04,-1215447.11,-1096.76,-32032.82,712.39,-1293555.46,-643345.3,-41500.48
-558842.04,-1215477.15,-1081.73,-31993.39,693.35,-1293585.76,-643301.58,-41584.17
-558847.67,-1215507.46,-1066.71,-31975.96,699.52,-1293614.2,-643202.34,-41661.15
-558873.15,-1215538.04,-1075.03,-31987.22,723.12,-1293642.9,-643285.49,-41628.42
-558919.55,-1215571.57,-1091.66,-32017.26,732.51,-1293674.01,-643415.85,-41529.99
-558950.13,-1215604.56,-1096.22,-31996.88,716.69,-1293705.12,-643449.64,-41518.18
-558954.15,-1215624.14,-1096.76,-31965.76,700.59,-1293733.82,-643353.35,-41631.64
-558964.08,-1215634.87,-1089.25,-31967.91,698.45,-1293763.33,-643247.67,-41665.44
-558994.39,-1215691.19,-1087.64,-31967.11,712.13,-1293794.98,-643387.42,-41610.45
-559033.81,-1215726.06,-1102.12,-31980.52,722.05,-1293826.36,-643505.43,-41550.64
-558950.13,-1215604.56,-1096.22,-31996.88,716.69,-1293705.12,-643449.64,-41518.18
-558954.15,-1215624.14,-1096.76,-31965.76,700.59,-1293733.82,-643353.35,-41631.64
-558964.08,-1215634.87,-1089.25,-31967.91,698.45,-1293763.33,-643247.67,-41665.44
-558994.39,-1215691.19,-1087.64,-31967.11,712.13,-1293794.98,-643387.42,-41610.45
-559033.81,-1215726.06,-1102.12,-31980.52,722.05,-1293826.36,-643505.43,-41550.64
-559077.8,-1215757.44,-1108.83,-31971.13,707.84,-1293856.13,-643528.77,-41517.11
-559096.58,-1215788.29,-1095.95,-31932.77,700.86,-1293884.29,-643511.6,-41572.1
-559107.84,-1215820.47,-1076.64,-31905.95,698.18,-1293912.99,-643469.49,-41620.64
-559131.72,-1215852.93,-1073.96,-31876.45,717.76,-1293944.64,-643526.89,-41608.31
-559174.9,-1215884.85,-1089.51,-31883.15,720.44,-1293975.22,-643625.33,-41543.67
-559077.8,-1215757.44,-1108.83,-31971.13,707.84,-1293856.13,-643528.77,-41517.11
-559096.58,-1215788.29,-1095.95,-31932.77,700.86,-1293884.29,-643511.6,-41572.1
-559107.84,-1215820.47,-1076.64,-31905.95,698.18,-1293912.99,-643469.49,-41620.64
-559131.72,-1215852.93,-1073.96,-31876.45,717.76,-1293944.64,-643526.89,-41608.31
-559174.9,-1215884.85,-1089.51,-31883.15,720.44,-1293975.22,-643625.33,-41543.67
-559214.33,-1215916.5,-1098.63,-31904.88,712.93,-1294004.73,-643647.05,-41542.06
-559225.06,-1215945.2,-1105.61,-31903.54,712.66,-1294032.35,-643628.01,-41601.6
-559224.25,-1215976.58,-1090.32,-31871.08,701.67,-1294061.86,-643566.32,-41645.86
-559241.15,-1216009.57,-1079.32,-31870.01,704.62,-1294092.97,-643578.66,-41634.32
-559279.5,-1216043.1,-1093.27,-31888.52,717.49,-1294124.35,-643655.64,-41584.7
-559214.33,-1215916.5,-1098.63,-31904.88,712.93,-1294004.73,-643647.05,-41542.06
-559225.06,-1215945.2,-1105.61,-31903.54,712.66,-1294032.35,-643628.01,-41601.6
-559224.25,-1215976.58,-1090.32,-31871.08,701.67,-1294061.86,-643566.32,-41645.86
-559241.15,-1216009.57,-1079.32,-31870.01,704.62,-1294092.97,-643578.66,-41634.32
-559279.5,-1216043.1,-1093.27,-31888.52,717.49,-1294124.35,-643655.64,-41584.7
-559321.62,-1216076.09,-1110.97,-31897.9,711.05,-1294154.66,-643733.69,-41554.13
-559332.88,-1216106.4,-1101.05,-31876.18,694.69,-1294183.09,-643674.68,-41627.89
-559339.85,-1216135.63,-1078.25,-31865.18,693.89,-1294210.72,-643563.64,-41690.92
-559366.94,-1216168.63,-1069.93,-31853.65,712.13,-1294242.64,-643592.6,-41665.97
-559420.59,-1216202.15,-1097.83,-31868.67,727.95,-1294273.22,-643748.17,-41559.22
-559321.62,-1216076.09,-1110.97,-31897.9,711.05,-1294154.66,-643733.69,-41554.13
-559332.88,-1216106.4,-1101.05,-31876.18,694.69,-1294183.09,-643674.68,-41627.89
-559339.85,-1216135.63,-1078.25,-31865.18,693.89,-1294210.72,-643563.64,-41690.92
-559366.94,-1216168.63,-1069.93,-31853.65,712.13,-1294242.64,-643592.6,-41665.97
-559420.59,-1216202.15,-1097.83,-31868.67,727.95,-1294273.22,-643748.17,-41559.22
-559454.39,-1216233.8,-1102.12,-31855.79,707.57,-1294302.45,-643826.76,-41553.05
-559464.31,-1216264.38,-1083.88,-31830.85,687.45,-1294331.42,-643825.96,-41623.06
-559476.65,-1216293.08,-1052.23,-31806.71,690.67,-1294356.9,-643759.71,-41668.39
-559512.05,-1216327.14,-1054.91,-31791.69,731.44,-1294387.75,-643850.1,-41615.55
-559551.21,-1216362.28,-1076.1,-31791.96,741.63,-1294420.47,-643932.71,-41589.26
-559454.39,-1216233.8,-1102.12,-31855.79,707.57,-1294302.45,-643826.76,-41553.05
-559464.31,-1216264.38,-1083.88,-31830.85,687.45,-1294331.42,-643825.96,-41623.06
-559476.65,-1216293.08,-1052.23,-31806.71,690.67,-1294356.9,-643759.71,-41668.39
-559512.05,-1216327.14,-1054.91,-31791.69,731.44,-1294387.75,-643850.1,-41615.55
-559551.21,-1216362.28,-1076.1,-31791.96,741.63,-1294420.47,-643932.71,-41589.26
,,,,,,,
-559705.98,-1216551.38,-1071.01,-31735.63,712.39,-1294601.52,-644045.36,-41588.73
-559719.12,-1216582.49,-1065.11,-31710.95,711.05,-1294629.95,-643995.47,-41687.97
-559726.63,-1216611.73,-1045.79,-31694.32,708.37,-1294658.11,-643888.45,-41750.2
-559749.16,-1216644.45,-1041.77,-31691.64,724.46,-1294688.15,-643961.94,-41720.15
-559783.49,-1216675.03,-1061.89,-31686.81,738.68,-1294716.32,-644085.33,-41649.88
-559705.98,-1216551.38,-1071.01,-31735.63,712.39,-1294601.52,-644045.36,-41588.73
-559719.12,-1216582.49,-1065.11,-31710.95,711.05,-1294629.95,-643995.47,-41687.97
-559726.63,-1216611.73,-1045.79,-31694.32,708.37,-1294658.11,-643888.45,-41750.2
-559749.16,-1216644.45,-1041.77,-31691.64,724.46,-1294688.15,-643961.94,-41720.15
-559783.49,-1216675.03,-1061.89,-31686.81,738.68,-1294716.32,-644085.33,-41649.88
-559819.17,-1216707.21,-1086.03,-31728.93,733.58,-1294745.55,-644067.89,-41642.37
-559833.11,-1216738.86,-1081.73,-31692.98,711.86,-1294776.13,-644107.32,-41690.65
-559835.26,-1216768.37,-1062.15,-31652.48,699.79,-1294804.29,-644012.91,-41761.19
-559857.25,-1216799.75,-1057.33,-31665.89,707.84,-1294833.8,-644037.31,-41747.78
-559906.07,-1216834.35,-1073.42,-31686.01,726.34,-1294865.98,-644160.43,-41657.12
-559819.17,-1216707.21,-1086.03,-31728.93,733.58,-1294745.55,-644067.89,-41642.37
-559833.11,-1216738.86,-1081.73,-31692.98,711.86,-1294776.13,-644107.32,-41690.65
-559835.26,-1216768.37,-1062.15,-31652.48,699.79,-1294804.29,-644012.91,-41761.19
-559857.25,-1216799.75,-1057.33,-31665.89,707.84,-1294833.8,-644037.31,-41747.78
-559906.07,-1216834.35,-1073.42,-31686.01,726.34,-1294865.98,-644160.43,-41657.12
-559945.5,-1216866,-1086.03,-31697.54,716.95,-1294895.22,-644204.42,-41629.5
-559948.98,-1216895.5,-1080.66,-31672.33,703.81,-1294924.46,-644105.98,-41703.26
-559959.18,-1216925.81,-1066.45,-31644.17,703.54,-1294953.69,-644047.24,-41748.59
-559991.36,-1216958.54,-1062.96,-31624.32,717.22,-1294982.66,-644179.2,-41690.11
-560035.62,-1216991.26,-1074.22,-31621.1,730.37,-1295014.58,-644279.25,-41629.23
-559945.5,-1216866,-1086.03,-31697.54,716.95,-1294895.22,-644204.42,-41629.5
-559948.98,-1216895.5,-1080.66,-31672.33,703.81,-1294924.46,-644105.98,-41703.26
-559959.18,-1216925.81,-1066.45,-31644.17,703.54,-1294953.69,-644047.24,-41748.59
-559991.36,-1216958.54,-1062.96,-31624.32,717.22,-1294982.66,-644179.2,-41690.11
-560035.62,-1216991.26,-1074.22,-31621.1,730.37,-1295014.58,-644279.25,-41629.23
-560055.2,-1217023.18,-1084.15,-31642.56,719.1,-1295044.08,-644302.85,-41681.8
-560072.63,-1217052.41,-1073.15,-31604.47,706.23,-1295070.64,-644245.99,-41702.99
-560084.44,-1217080.84,-1047.4,-31559.68,707.57,-1295096.92,-644227.75,-41746.71
-560106.43,-1217112.49,-1052.5,-31588.11,730.37,-1295128.04,-644280.59,-41716.13
-560150.42,-1217147.63,-1066.98,-31598.3,734.66,-1295160.49,-644377.69,-41627.62
-560055.2,-1217023.18,-1084.15,-31642.56,719.1,-1295044.08,-644302.85,-41681.8
-560072.63,-1217052.41,-1073.15,-31604.47,706.23,-1295070.64,-644245.99,-41702.99
-560084.44,-1217080.84,-1047.4,-31559.68,707.57,-1295096.92,-644227.75,-41746.71
-560106.43,-1217112.49,-1052.5,-31588.11,730.37,-1295128.04,-644280.59,-41716.13
-560150.42,-1217147.63,-1066.98,-31598.3,734.66,-1295160.49,-644377.69,-41627.62
-560181.26,-1217179.01,-1067.52,-31584.09,719.37,-1295191.6,-644418.73,-41642.37
-560179.92,-1217193.23,-1071.01,-31566.92,716.95,-1295220.57,-644297.49,-41745.64
-560192.26,-1217228.1,-1064.57,-31556.19,713.2,-1295249.27,-644218.1,-41780.5
-560219.35,-1217266.72,-1054.64,-31543.85,714.81,-1295279.04,-644337.99,-41744.56
-560270.31,-1217299.71,-1064.57,-31527.22,722.59,-1295309.89,-644474.25,-41645.32
-560181.26,-1217179.01,-1067.52,-31584.09,719.37,-1295191.6,-644418.73,-41642.37
-560179.92,-1217193.23,-1071.01,-31566.92,716.95,-1295220.57,-644297.49,-41745.64
-560192.26,-1217228.1,-1064.57,-31556.19,713.2,-1295249.27,-644218.1,-41780.5
-560219.35,-1217266.72,-1054.64,-31543.85,714.81,-1295279.04,-644337.99,-41744.56
-560270.31,-1217299.71,-1064.57,-31527.22,722.59,-1295309.89,-644474.25,-41645.32
-560307.33,-1217326,-1077.71,-31511.67,716.95,-1295339.66,-644462.71,-41654.71
-560322.62,-1217354.7,-1074.22,-31506.3,705.15,-1295367.82,-644405.85,-41720.96
-560326.37,-1217391.18,-1051.43,-31487.79,705.69,-1295397.6,-644336.92,-41776.21
-560351.05,-1217421.75,-1047.13,-31481.09,725.27,-1295427.1,-644459.76,-41764.41
-560395.04,-1217453.14,-1071.01,-31469.56,746.46,-1295455.8,-644549.35,-41674.56
-560307.33,-1217326,-1077.71,-31511.67,716.95,-1295339.66,-644462.71,-41654.71
-560322.62,-1217354.7,-1074.22,-31506.3,705.15,-1295367.82,-644405.85,-41720.96
-560326.37,-1217391.18,-1051.43,-31487.79,705.69,-1295397.6,-644336.92,-41776.21
-560351.05,-1217421.75,-1047.13,-31481.09,725.27,-1295427.1,-644459.76,-41764.41
-560395.04,-1217453.14,-1071.01,-31469.56,746.46,-1295455.8,-644549.35,-41674.56
-560429.9,-1217486.66,-1080.93,-31470.63,720.44,-1295485.84,-644559.27,-41666.51
-560429.64,-1217517.51,-1068.59,-31467.41,694.69,-1295515.08,-644491.14,-41765.48
-560439.29,-1217547.82,-1048.21,-31456.95,698.45,-1295545.12,-644373.13,-41816.18
-560462.09,-1217579.2,-1045.53,-31475.19,716.69,-1295574.89,-644406.66,-41800.08
-560506.08,-1217613.53,-1069.93,-31486.99,729.29,-1295605.47,-644517.97,-41718.81
-560429.9,-1217486.66,-1080.93,-31470.63,720.44,-1295485.84,-644559.27,-41666.51
-560429.64,-1217517.51,-1068.59,-31467.41,694.69,-1295515.08,-644491.14,-41765.48
-560439.29,-1217547.82,-1048.21,-31456.95,698.45,-1295545.12,-644373.13,-41816.18
-560462.09,-1217579.2,-1045.53,-31475.19,716.69,-1295574.89,-644406.66,-41800.08
-560506.08,-1217613.53,-1069.93,-31486.99,729.29,-1295605.47,-644517.97,-41718.81
-560547.92,-1217645.18,-1080.39,-31471.97,710.79,-1295635.51,-644641.35,-41666.51
-560557.58,-1217675.22,-1061.35,-31450.78,696.03,-1295664.48,-644647.79,-41751.27
-560560.8,-1217703.65,-1046.33,-31437.1,707.57,-1295691.84,-644507.77,-41809.74
-560589.23,-1217736.38,-1047.94,-31423.96,727.15,-1295722.14,-644602.46,-41741.61
-560636.17,-1217769.1,-1063.23,-31431.2,735.73,-1295752.19,-644723.96,-41675.09
-560547.92,-1217645.18,-1080.39,-31471.97,710.79,-1295635.51,-644641.35,-41666.51
-560557.58,-1217675.22,-1061.35,-31450.78,696.03,-1295664.48,-644647.79,-41751.27
-560560.8,-1217703.65,-1046.33,-31437.1,707.57,-1295691.84,-644507.77,-41809.74
-560589.23,-1217736.38,-1047.94,-31423.96,727.15,-1295722.14,-644602.46,-41741.61
-560636.17,-1217769.1,-1063.23,-31431.2,735.73,-1295752.19,-644723.96,-41675.09
-560675.33,-1217800.75,-1067.52,-31415.37,726.88,-1295783.03,-644757.76,-41679.38
-560697.59,-1217827.04,-1063.23,-31373.53,716.42,-1295810.12,-644727.45,-41700.84
-560705.64,-1217838.3,-1051.43,-31353.95,726.61,-1295838.82,-644711.35,-41753.15
-560723.07,-1217883.9,-1055.18,-31349.39,737.61,-1295870.2,-644791.28,-41722.84
-560765.45,-1217921.18,-1061.35,-31348.32,736.53,-1295901.58,-644862.09,-41666.24
-560675.33,-1217800.75,-1067.52,-31415.37,726.88,-1295783.03,-644757.76,-41679.38
-560697.59,-1217827.04,-1063.23,-31373.53,716.42,-1295810.12,-644727.45,-41700.84
-560705.64,-1217838.3,-1051.43,-31353.95,726.61,-1295838.82,-644711.35,-41753.15
-560723.07,-1217883.9,-1055.18,-31349.39,737.61,-1295870.2,-644791.28,-41722.84
-560765.45,-1217921.18,-1061.35,-31348.32,736.53,-1295901.58,-644862.09,-41666.24
-560801.39,-1217953.37,-1066.71,-31352.88,718.56,-1295931.89,-644890.26,-41665.17
-560808.1,-1217984.21,-1054.38,-31331.42,707.03,-1295960.86,-644831.79,-41760.92
-560818.29,-1218014.52,-1033.19,-31314.79,709.98,-1295988.76,-644846,-41799.28
-560840.55,-1218044.29,-1026.21,-31309.43,730.63,-1296018.53,-644821.06,-41760.39
-560888.83,-1218078.36,-1049.55,-31296.02,744.04,-1296049.37,-644938.54,-41661.95
-560801.39,-1217953.37,-1066.71,-31352.88,718.56,-1295931.89,-644890.26,-41665.17
-560808.1,-1217984.21,-1054.38,-31331.42,707.03,-1295960.86,-644831.79,-41760.92
-560818.29,-1218014.52,-1033.19,-31314.79,709.98,-1295988.76,-644846,-41799.28
-560840.55,-1218044.29,-1026.21,-31309.43,730.63,-1296018.53,-644821.06,-41760.39
-560888.83,-1218078.36,-1049.55,-31296.02,744.04,-1296049.37,-644938.54,-41661.95
-560925.84,-1218110.81,-1059.2,-31271.61,730.9,-1296078.88,-644956.78,-41670.8
-560930.14,-1218139.24,-1049.82,-31277.51,705.96,-1296105.97,-644851.37,-41793.65
-560943.55,-1218170.09,-1031.31,-31241.03,705.69,-1296134.67,-644830.18,-41807.59
-560984.05,-1218199.33,-1038.01,-31242.37,735.19,-1296163.9,-644895.35,-41724.98
-561028.31,-1218231.78,-1051.69,-31244.25,742.7,-1296193.95,-644998.35,-41663.29
-560925.84,-1218110.81,-1059.2,-31271.61,730.9,-1296078.88,-644956.78,-41670.8
-560930.14,-1218139.24,-1049.82,-31277.51,705.96,-1296105.97,-644851.37,-41793.65
-560943.55,-1218170.09,-1031.31,-31241.03,705.69,-1296134.67,-644830.18,-41807.59
-560984.05,-1218199.33,-1038.01,-31242.37,735.19,-1296163.9,-644895.35,-41724.98
-561028.31,-1218231.78,-1051.69,-31244.25,742.7,-1296193.95,-644998.35,-41663.29
-561064.78,-1218266.38,-1071.54,-31256.32,738.68,-1296227.2,-645042.34,-41672.41
-561070.95,-1218296.15,-1057.86,-31242.1,716.69,-1296255.9,-644988.69,-41767.9
-561078.19,-1218327.54,-1040.7,-31231.11,714.54,-1296284.87,-644902.33,-41814.3
-561105.28,-1218359.72,-1036.41,-31211.8,729.83,-1296314.11,-645001.3,-41777.02
-561153.56,-1218392.18,-1056.25,-31230.84,744.31,-1296345.22,-645091.96,-41692.26
-561064.78,-1218266.38,-1071.54,-31256.32,738.68,-1296227.2,-645042.34,-41672.41
-561070.95,-1218296.15,-1057.86,-31242.1,716.69,-1296255.9,-644988.69,-41767.9
-561078.19,-1218327.54,-1040.7,-31231.11,714.54,-1296284.87,-644902.33,-41814.3
-561105.28,-1218359.72,-1036.41,-31211.8,729.83,-1296314.11,-645001.3,-41777.02
-561153.56,-1218392.18,-1056.25,-31230.84,744.31,-1296345.22,-645091.96,-41692.26
-561182.53,-1218422.75,-1062.69,-31229.77,721.25,-1296374.99,-645157.41,-41694.41
-561191.12,-1218452.79,-1053.57,-31207.24,710.79,-1296403.43,-645132.73,-41771.12
-561192.72,-1218468.62,-1042.84,-31196.77,713.2,-1296430.25,-645000.5,-41819.13
-561231.08,-1218484.98,-1040.43,-31187.66,730.63,-1296461.9,-645082.84,-41745.1
-561276.41,-1218540.77,-1060.55,-31183.36,743.24,-1296493.28,-645203.27,-41673.75
-561182.53,-1218422.75,-1062.69,-31229.77,721.25,-1296374.99,-645157.41,-41694.41
-561191.12,-1218452.79,-1053.57,-31207.24,710.79,-1296403.43,-645132.73,-41771.12
-561192.72,-1218468.62,-1042.84,-31196.77,713.2,-1296430.25,-645000.5,-41819.13
-561231.08,-1218484.98,-1040.43,-31187.66,730.63,-1296461.9,-645082.84,-41745.1
-561276.41,-1218540.77,-1060.55,-31183.36,743.24,-1296493.28,-645203.27,-41673.75
-561313.16,-1218571.88,-1067.25,-31188.46,735.46,-1296521.44,-645260.13,-41679.65
-561328.44,-1218602.19,-1067.25,-31158.42,726.61,-1296549.61,-645235.19,-41731.96
-561335.15,-1218633.58,-1057.06,-31143.94,733.32,-1296579.11,-645182.62,-41773.26
-561357.68,-1218665.49,-1057.33,-31138.57,744.04,-1296609.96,-645229.56,-41750.46
-561398.45,-1218697.68,-1061.08,-31154.4,747.26,-1296640,-645338.19,-41687.43
-561313.16,-1218571.88,-1067.25,-31188.46,735.46,-1296521.44,-645260.13,-41679.65
-561328.44,-1218602.19,-1067.25,-31158.42,726.61,-1296549.61,-645235.19,-41731.96
-561335.15,-1218633.58,-1057.06,-31143.94,733.32,-1296579.11,-645182.62,-41773.26
-561357.68,-1218665.49,-1057.33,-31138.57,744.04,-1296609.96,-645229.56,-41750.46
-561398.45,-1218697.68,-1061.08,-31154.4,747.26,-1296640,-645338.19,-41687.43
-561429.3,-1218729.33,-1068.86,-31147.69,738.14,-1296670.04,-645370.37,-41704.87
-561440.56,-1218760.18,-1063.23,-31105.85,725.27,-1296699.01,-645336.04,-41759.58
-561453.97,-1218791.02,-1055.45,-31084.12,731.97,-1296727.97,-645268.45,-41799.01
-561484.82,-1218823.21,-1051.69,-31069.91,742.97,-1296758.82,-645371.98,-41756.9
-561534.17,-1218854.86,-1065.37,-31085.46,764.7,-1296789.13,-645458.62,-41679.92
-561429.3,-1218729.33,-1068.86,-31147.69,738.14,-1296670.04,-645370.37,-41704.87
-561440.56,-1218760.18,-1063.23,-31105.85,725.27,-1296699.01,-645336.04,-41759.58
-561453.97,-1218791.02,-1055.45,-31084.12,731.97,-1296727.97,-645268.45,-41799.01
-561484.82,-1218823.21,-1051.69,-31069.91,742.97,-1296758.82,-645371.98,-41756.9
-561534.17,-1218854.86,-1065.37,-31085.46,764.7,-1296789.13,-645458.62,-41679.92
-561566.09,-1218886.78,-1080.93,-31077.95,762.55,-1296819.44,-645454.59,-41689.58
-561580.57,-1218917.08,-1084.69,-31025.38,741.09,-1296848.94,-645502.34,-41732.76
-561590.76,-1218944.98,-1055.18,-30963.42,736.53,-1296874.42,-645551.69,-41753.95
-561629.12,-1218976.63,-1051.43,-30925.07,759.33,-1296903.12,-645591.39,-41711.57
-561670.43,-1219010.96,-1066.45,-30941.7,768.18,-1296936.11,-645629.74,-41696.55
-561566.09,-1218886.78,-1080.93,-31077.95,762.55,-1296819.44,-645454.59,-41689.58
-561580.57,-1218917.08,-1084.69,-31025.38,741.09,-1296848.94,-645502.34,-41732.76
-561590.76,-1218944.98,-1055.18,-30963.42,736.53,-1296874.42,-645551.69,-41753.95
-561629.12,-1218976.63,-1051.43,-30925.07,759.33,-1296903.12,-645591.39,-41711.57
-561670.43,-1219010.96,-1066.45,-30941.7,768.18,-1296936.11,-645629.74,-41696.55
,,,,,,,
-561846.92,-1219200.59,-1088.17,-30800.34,766.84,-1297115.02,-645845.39,-41691.99
-561872.66,-1219232.51,-1075.57,-30767.09,740.02,-1297145.32,-645846.2,-41726.32
-561879.1,-1219262.02,-1060.01,-30735.43,738.14,-1297173.22,-645779.95,-41777.55
-561901.1,-1219293.13,-1063.76,-30732.48,755.31,-1297203.53,-645814.28,-41764.68
-561944.28,-1219324.78,-1084.95,-30723.63,763.09,-1297233.84,-645936.86,-41702.18
-561846.92,-1219200.59,-1088.17,-30800.34,766.84,-1297115.02,-645845.39,-41691.99
-561872.66,-1219232.51,-1075.57,-30767.09,740.02,-1297145.32,-645846.2,-41726.32
-561879.1,-1219262.02,-1060.01,-30735.43,738.14,-1297173.22,-645779.95,-41777.55
-561901.1,-1219293.13,-1063.76,-30732.48,755.31,-1297203.53,-645814.28,-41764.68
-561944.28,-1219324.78,-1084.95,-30723.63,763.09,-1297233.84,-645936.86,-41702.18
-561986.39,-1219355.89,-1096.76,-30705.66,745.12,-1297261.2,-645976.28,-41674.56
-562008.38,-1219376.55,-1087.64,-30659.8,728.49,-1297292.58,-645975.21,-41724.98
-562023.94,-1219398.27,-1060.01,-30631.63,727.15,-1297322.35,-645980.58,-41766.29
-562052.64,-1219443.07,-1065.91,-30606.42,755.85,-1297351.05,-646066.41,-41747.51
-562097.17,-1219477.13,-1090.59,-30609.37,764.7,-1297382.16,-646104.49,-41700.57
-561986.39,-1219355.89,-1096.76,-30705.66,745.12,-1297261.2,-645976.28,-41674.56
-562008.38,-1219376.55,-1087.64,-30659.8,728.49,-1297292.58,-645975.21,-41724.98
-562023.94,-1219398.27,-1060.01,-30631.63,727.15,-1297322.35,-645980.58,-41766.29
-562052.64,-1219443.07,-1065.91,-30606.42,755.85,-1297351.05,-646066.41,-41747.51
-562097.17,-1219477.13,-1090.59,-30609.37,764.7,-1297382.16,-646104.49,-41700.57
-562138.74,-1219508.78,-1107.75,-30589.25,752.36,-1297412.47,-646123,-41690.38
-562158.59,-1219538.55,-1099.97,-30559.75,738.68,-1297440.9,-646131.58,-41733.57
-562168.24,-1219569.93,-1078.52,-30500.47,742.97,-1297470.68,-646199.18,-41752.61
-562191.58,-1219601.58,-1083.61,-30509.32,763.36,-1297501.52,-646236.73,-41746.17
-562236.1,-1219632.97,-1100.78,-30522.2,777.04,-1297531.29,-646268.64,-41697.89
-562138.74,-1219508.78,-1107.75,-30589.25,752.36,-1297412.47,-646123,-41690.38
-562158.59,-1219538.55,-1099.97,-30559.75,738.68,-1297440.9,-646131.58,-41733.57
-562168.24,-1219569.93,-1078.52,-30500.47,742.97,-1297470.68,-646199.18,-41752.61
-562191.58,-1219601.58,-1083.61,-30509.32,763.36,-1297501.52,-646236.73,-41746.17
-562236.1,-1219632.97,-1100.78,-30522.2,777.04,-1297531.29,-646268.64,-41697.89
-562272.58,-1219665.96,-1115.8,-30499.13,760.94,-1297562.41,-646293.86,-41705.4
-562292.7,-1219695.73,-1110.97,-30464.26,738.41,-1297591.11,-646322.29,-41743.49
-562306.91,-1219724.97,-1092.73,-30414.37,742.44,-1297619,-646310.49,-41762.53
-562332.4,-1219757.42,-1087.37,-30410.89,762.02,-1297649.31,-646331.68,-41742.42
-562376.65,-1219790.41,-1103.46,-30413.57,766.58,-1297680.16,-646383.98,-41694.94
-562272.58,-1219665.96,-1115.8,-30499.13,760.94,-1297562.41,-646293.86,-41705.4
-562292.7,-1219695.73,-1110.97,-30464.26,738.41,-1297591.11,-646322.29,-41743.49
-562306.91,-1219724.97,-1092.73,-30414.37,742.44,-1297619,-646310.49,-41762.53
-562332.4,-1219757.42,-1087.37,-30410.89,762.02,-1297649.31,-646331.68,-41742.42
-562376.65,-1219790.41,-1103.46,-30413.57,766.58,-1297680.16,-646383.98,-41694.94
-562412.06,-1219822.87,-1119.55,-30411.42,744.58,-1297711,-646444.06,-41692.26
-562437,-1219852.64,-1095.95,-30373.87,718.3,-1297739.17,-646483.22,-41723.1
-562456.58,-1219883.48,-1069.13,-30305.75,734.66,-1297768.67,-646514.07,-41745.64
-562480.72,-1219916.21,-1068.32,-30300.38,759.6,-1297799.52,-646496.1,-41751
-562526.86,-1219947.59,-1086.83,-30289.92,764.16,-1297829.29,-646563.96,-41689.04
-562412.06,-1219822.87,-1119.55,-30411.42,744.58,-1297711,-646444.06,-41692.26
-562437,-1219852.64,-1095.95,-30373.87,718.3,-1297739.17,-646483.22,-41723.1
-562456.58,-1219883.48,-1069.13,-30305.75,734.66,-1297768.67,-646514.07,-41745.64
-562480.72,-1219916.21,-1068.32,-30300.38,759.6,-1297799.52,-646496.1,-41751
-562526.86,-1219947.59,-1086.83,-30289.92,764.16,-1297829.29,-646563.96,-41689.04
-562566.28,-1219978.44,-1103.46,-30264.44,747.26,-1297858.52,-646609.29,-41692.8
-562587.21,-1220008.74,-1096.76,-30227.16,729.56,-1297888.56,-646628.33,-41751.27
-562599.54,-1220029.67,-1071.54,-30197.65,733.05,-1297917,-646608.48,-41794.45
-562625.02,-1220064.8,-1068.59,-30213.75,754.24,-1297946.77,-646675.27,-41758.51
-562673.84,-1220099.4,-1085.49,-30175.66,766.58,-1297975.74,-646732.13,-41689.58
-562566.28,-1219978.44,-1103.46,-30264.44,747.26,-1297858.52,-646609.29,-41692.8
-562587.21,-1220008.74,-1096.76,-30227.16,729.56,-1297888.56,-646628.33,-41751.27
-562599.54,-1220029.67,-1071.54,-30197.65,733.05,-1297917,-646608.48,-41794.45
-562625.02,-1220064.8,-1068.59,-30213.75,754.24,-1297946.77,-646675.27,-41758.51
-562673.84,-1220099.4,-1085.49,-30175.66,766.58,-1297975.74,-646732.13,-41689.58
-562708.71,-1220131.32,-1111.78,-30162.25,751.82,-1298005.78,-646767.8,-41701.65
-562718.63,-1220163.51,-1106.41,-30152.32,728.49,-1298037.96,-646746.08,-41784.8
-562732.04,-1220194.62,-1094.07,-30122.55,730.37,-1298067.2,-646734.28,-41800.62
-562762.89,-1220227.34,-1101.32,-30098.14,750.21,-1298097.78,-646839.69,-41758.51
-562805.81,-1220258.19,-1113.92,-30114.77,755.58,-1298128.35,-646881.53,-41697.89
-562708.71,-1220131.32,-1111.78,-30162.25,751.82,-1298005.78,-646767.8,-41701.65
-562718.63,-1220163.51,-1106.41,-30152.32,728.49,-1298037.96,-646746.08,-41784.8
-562732.04,-1220194.62,-1094.07,-30122.55,730.37,-1298067.2,-646734.28,-41800.62
-562762.89,-1220227.34,-1101.32,-30098.14,750.21,-1298097.78,-646839.69,-41758.51
-562805.81,-1220258.19,-1113.92,-30114.77,755.58,-1298128.35,-646881.53,-41697.89
-562838.26,-1220289.84,-1124.92,-30102.43,740.29,-1298157.86,-646893.87,-41707.82
-562851.94,-1220322.56,-1116.34,-30072.66,734.66,-1298188.44,-646898.43,-41757.97
-562864.01,-1220352.07,-1106.41,-30032.16,737.34,-1298217.4,-646911.3,-41801.96
-562887.34,-1220383.45,-1114.99,-30047.72,751.56,-1298247.71,-646972.99,-41796.6
-562933.75,-1220415.64,-1132.43,-30043.96,758.53,-1298277.49,-647010.01,-41724.45
-562838.26,-1220289.84,-1124.92,-30102.43,740.29,-1298157.86,-646893.87,-41707.82
-562851.94,-1220322.56,-1116.34,-30072.66,734.66,-1298188.44,-646898.43,-41757.97
-562864.01,-1220352.07,-1106.41,-30032.16,737.34,-1298217.4,-646911.3,-41801.96
-562887.34,-1220383.45,-1114.99,-30047.72,751.56,-1298247.71,-646972.99,-41796.6
-562933.75,-1220415.64,-1132.43,-30043.96,758.53,-1298277.49,-647010.01,-41724.45
-562972.91,-1220447.55,-1141.01,-30037.26,741.63,-1298307.53,-647021.27,-41721.23
-563001.34,-1220476.79,-1123.58,-30001.05,726.07,-1298337.03,-647075.99,-41737.59
-563027.89,-1220506.29,-1082.81,-29939.09,740.02,-1298365.46,-647114.35,-41756.1
-563064.1,-1220539.02,-1080.13,-29914.41,767.92,-1298396.58,-647147.87,-41743.76
-563102.73,-1220573.35,-1101.58,-29936.67,777.57,-1298428.49,-647163.43,-41733.57
-562972.91,-1220447.55,-1141.01,-30037.26,741.63,-1298307.53,-647021.27,-41721.23
-563001.34,-1220476.79,-1123.58,-30001.05,726.07,-1298337.03,-647075.99,-41737.59
-563027.89,-1220506.29,-1082.81,-29939.09,740.02,-1298365.46,-647114.35,-41756.1
-563064.1,-1220539.02,-1080.13,-29914.41,767.92,-1298396.58,-647147.87,-41743.76
-563102.73,-1220573.35,-1101.58,-29936.67,777.57,-1298428.49,-647163.43,-41733.57
-563141.62,-1220603.66,-1117.14,-29943.92,768.18,-1298457.19,-647220.83,-41720.69
-563158.25,-1220635.58,-1110.97,-29903.15,756.38,-1298488.04,-647258.65,-41766.56
-563167.9,-1220665.35,-1097.02,-29850.57,760.67,-1298517.54,-647245.51,-41810.01
-563189.63,-1220697,-1099.71,-29840.38,769.79,-1298547.05,-647254.09,-41797.4
-563237.1,-1220729.72,-1124.92,-29843.6,773.55,-1298578.43,-647339.65,-41725.79
-563141.62,-1220603.66,-1117.14,-29943.92,768.18,-1298457.19,-647220.83,-41720.69
-563158.25,-1220635.58,-1110.97,-29903.15,756.38,-1298488.04,-647258.65,-41766.56
-563167.9,-1220665.35,-1097.02,-29850.57,760.67,-1298517.54,-647245.51,-41810.01
-563189.63,-1220697,-1099.71,-29840.38,769.79,-1298547.05,-647254.09,-41797.4
-563237.1,-1220729.72,-1124.92,-29843.6,773.55,-1298578.43,-647339.65,-41725.79
-563271.97,-1220762.18,-1138.33,-29850.04,755.85,-1298609.27,-647379.08,-41732.22
-563282.7,-1220792.75,-1135.11,-29828.85,743.24,-1298639.05,-647359.23,-41789.36
-563292.89,-1220823.33,-1117.41,-29784.06,733.85,-1298668.01,-647294.05,-41822.35
-563326.15,-1220852.84,-1109.9,-29762.87,745.12,-1298695.64,-647404.56,-41771.92
-563371.22,-1220884.75,-1123.31,-29759.11,769.26,-1298726.76,-647475.1,-41718.81
-563271.97,-1220762.18,-1138.33,-29850.04,755.85,-1298609.27,-647379.08,-41732.22
-563282.7,-1220792.75,-1135.11,-29828.85,743.24,-1298639.05,-647359.23,-41789.36
-563292.89,-1220823.33,-1117.41,-29784.06,733.85,-1298668.01,-647294.05,-41822.35
-563326.15,-1220852.84,-1109.9,-29762.87,745.12,-1298695.64,-647404.56,-41771.92
-563371.22,-1220884.75,-1123.31,-29759.11,769.26,-1298726.76,-647475.1,-41718.81
-563411.45,-1220918.55,-1133.77,-29758.04,741.9,-1298760.01,-647510.51,-41725.52
-563423.25,-1220949.66,-1109.36,-29755.89,712.93,-1298789.79,-647483.95,-41787.48
-563434.78,-1220979.44,-1091.39,-29721.83,727.95,-1298818.76,-647482.61,-41811.08
-563463.48,-1221011.62,-1096.49,-29699.57,747.53,-1298848.8,-647564.15,-41780.5
-563507.47,-1221044.88,-1115.53,-29719.41,757.46,-1298879.64,-647618.06,-41736.52
-563411.45,-1220918.55,-1133.77,-29758.04,741.9,-1298760.01,-647510.51,-41725.52
-563423.25,-1220949.66,-1109.36,-29755.89,712.93,-1298789.79,-647483.95,-41787.48
-563434.78,-1220979.44,-1091.39,-29721.83,727.95,-1298818.76,-647482.61,-41811.08
-563463.48,-1221011.62,-1096.49,-29699.57,747.53,-1298848.8,-647564.15,-41780.5
-563507.47,-1221044.88,-1115.53,-29719.41,757.46,-1298879.64,-647618.06,-41736.52
-563542.61,-1221076.26,-1127.6,-29699.3,738.41,-1298910.75,-647631.21,-41742.95
-563564.33,-1221107.11,-1121.97,-29661.21,730.9,-1298940.53,-647659.64,-41781.85
-563574.79,-1221137.95,-1096.49,-29622.05,732.78,-1298968.96,-647671.98,-41818.59
-563604.57,-1221170.14,-1095.68,-29607.83,744.58,-1298999.8,-647739.84,-41778.89
-563645.87,-1221203.13,-1118.48,-29601.67,749.41,-1299032.26,-647781.14,-41733.83
-563542.61,-1221076.26,-1127.6,-29699.3,738.41,-1298910.75,-647631.21,-41742.95
-563564.33,-1221107.11,-1121.97,-29661.21,730.9,-1298940.53,-647659.64,-41781.85
-563574.79,-1221137.95,-1096.49,-29622.05,732.78,-1298968.96,-647671.98,-41818.59
-563604.57,-1221170.14,-1095.68,-29607.83,744.58,-1298999.8,-647739.84,-41778.89
-563645.87,-1221203.13,-1118.48,-29601.67,749.41,-1299032.26,-647781.14,-41733.83
-563678.86,-1221233.71,-1134.57,-29603.54,736.53,-1299061.23,-647815.74,-41738.93
-563706.22,-1221263.48,-1115.26,-29544.27,715.61,-1299089.39,-647851.42,-41759.85
-563729.02,-1221294.86,-1088.71,-29495.45,726.34,-1299119.97,-647883.87,-41806.52
-563754.77,-1221328.39,-1087.37,-29493.57,752.63,-1299151.89,-647883.33,-41796.33
-563790.98,-1221361.65,-1109.63,-29522.81,763.36,-1299184.07,-647914.98,-41771.92
-563678.86,-1221233.71,-1134.57,-29603.54,736.53,-1299061.23,-647815.74,-41738.93
-563706.22,-1221263.48,-1115.26,-29544.27,715.61,-1299089.39,-647851.42,-41759.85
-563729.02,-1221294.86,-1088.71,-29495.45,726.34,-1299119.97,-647883.87,-41806.52
-563754.77,-1221328.39,-1087.37,-29493.57,752.63,-1299151.89,-647883.33,-41796.33
-563790.98,-1221361.65,-1109.63,-29522.81,763.36,-1299184.07,-647914.98,-41771.92
-563838.46,-1221392.5,-1117.41,-29506.18,744.58,-1299214.11,-647980.7,-41738.66
-563860.72,-1221423.07,-1102.39,-29469.97,726.61,-1299243.08,-647966.75,-41779.16
-563866.89,-1221454.45,-1083.88,-29441.54,728.76,-1299273.12,-647924.1,-41831.2
-563892.64,-1221486.1,-1084.69,-29437.78,749.41,-1299304.23,-648000.01,-41810.28
-563937.16,-1221519.36,-1110.43,-29442.34,760.14,-1299335.08,-648079.14,-41746.44
-563838.46,-1221392.5,-1117.41,-29506.18,744.58,-1299214.11,-647980.7,-41738.66
-563860.72,-1221423.07,-1102.39,-29469.97,726.61,-1299243.08,-647966.75,-41779.16
-563866.89,-1221454.45,-1083.88,-29441.54,728.76,-1299273.12,-647924.1,-41831.2
-563892.64,-1221486.1,-1084.69,-29437.78,749.41,-1299304.23,-648000.01,-41810.28
-563937.16,-1221519.36,-1110.43,-29442.34,760.14,-1299335.08,-648079.14,-41746.44
-563973.37,-1221550.48,-1123.85,-29437.25,748.87,-1299365.93,-648116.96,-41749.66
-563988.66,-1221581.32,-1108.29,-29393.79,734.39,-1299394.89,-648142.17,-41820.74
-563995.37,-1221610.83,-1089.25,-29362.14,721.25,-1299423.06,-648113.47,-41864.99
-564025.94,-1221640.87,-1085.22,-29354.1,738.95,-1299452.56,-648189.64,-41796.87
-564072.88,-1221675.74,-1110.17,-29339.35,757.46,-1299485.82,-648241.68,-41738.39
-563973.37,-1221550.48,-1123.85,-29437.25,748.87,-1299365.93,-648116.96,-41749.66
-563988.66,-1221581.32,-1108.29,-29393.79,734.39,-1299394.89,-648142.17,-41820.74
-563995.37,-1221610.83,-1089.25,-29362.14,721.25,-1299423.06,-648113.47,-41864.99
-564025.94,-1221640.87,-1085.22,-29354.1,738.95,-1299452.56,-648189.64,-41796.87
-564072.88,-1221675.74,-1110.17,-29339.35,757.46,-1299485.82,-648241.68,-41738.39
,,,,,,,
-564269.76,-1221867.51,-1114.19,-29216.5,744.31,-1299669.82,-648405.02,-41764.95
-564287.46,-1221898.63,-1104.53,-29186.73,722.32,-1299699.32,-648442.84,-41806.79
-564301.14,-1221929.21,-1083.08,-29137.91,730.1,-1299729.37,-648471.01,-41848.9
-564326.89,-1221961.93,-1088.17,-29130.94,752.09,-1299759.41,-648489.51,-41829.59
-564366.31,-1221994.12,-1113.12,-29140.06,760.14,-1299790.52,-648554.42,-41779.97
-564269.76,-1221867.51,-1114.19,-29216.5,744.31,-1299669.82,-648405.02,-41764.95
-564287.46,-1221898.63,-1104.53,-29186.73,722.32,-1299699.32,-648442.84,-41806.79
-564301.14,-1221929.21,-1083.08,-29137.91,730.1,-1299729.37,-648471.01,-41848.9
-564326.89,-1221961.93,-1088.17,-29130.94,752.09,-1299759.41,-648489.51,-41829.59
-564366.31,-1221994.12,-1113.12,-29140.06,760.14,-1299790.52,-648554.42,-41779.97
-564401.45,-1222023.35,-1128.94,-29115.92,745.92,-1299818.41,-648590.1,-41768.43
-564431.76,-1222054.46,-1108.29,-29057.71,719.9,-1299847.38,-648599.75,-41783.45
-564444.37,-1222087.99,-1088.71,-29024.45,719.64,-1299879.57,-648623.09,-41831.47
-564468.24,-1222121.52,-1084.42,-29041.08,740.56,-1299913.1,-648665.74,-41814.03
-564515.18,-1222153.44,-1104,-29028.75,754.77,-1299943.94,-648700.87,-41767.63
-564401.45,-1222023.35,-1128.94,-29115.92,745.92,-1299818.41,-648590.1,-41768.43
-564431.76,-1222054.46,-1108.29,-29057.71,719.9,-1299847.38,-648599.75,-41783.45
-564444.37,-1222087.99,-1088.71,-29024.45,719.64,-1299879.57,-648623.09,-41831.47
-564468.24,-1222121.52,-1084.42,-29041.08,740.56,-1299913.1,-648665.74,-41814.03
-564515.18,-1222153.44,-1104,-29028.75,754.77,-1299943.94,-648700.87,-41767.63
-564559.97,-1222185.36,-1118.21,-29008.09,723.66,-1299973.98,-648752.37,-41762
-564583.31,-1222215.67,-1110.97,-28958.2,705.15,-1300003.49,-648771.15,-41811.62
-564599.67,-1222245.97,-1084.95,-28905.9,709.71,-1300032.72,-648768.73,-41838.17
-564632.93,-1222279.77,-1090.32,-28901.61,729.83,-1300064.91,-648813.26,-41813.5
-564678.26,-1222311.42,-1112.04,-28926.28,738.14,-1300095.49,-648876.02,-41775.14
-564559.97,-1222185.36,-1118.21,-29008.09,723.66,-1299973.98,-648752.37,-41762
-564583.31,-1222215.67,-1110.97,-28958.2,705.15,-1300003.49,-648771.15,-41811.62
-564599.67,-1222245.97,-1084.95,-28905.9,709.71,-1300032.72,-648768.73,-41838.17
-564632.93,-1222279.77,-1090.32,-28901.61,729.83,-1300064.91,-648813.26,-41813.5
-564678.26,-1222311.42,-1112.04,-28926.28,738.14,-1300095.49,-648876.02,-41775.14
-564714.2,-1222343.61,-1128.14,-28896.51,731.97,-1300125.8,-648912.23,-41778.63
-564726.27,-1222374.18,-1123.31,-28850.38,706.23,-1300155.57,-648900.96,-41843.27
-564731.63,-1222403.15,-1101.85,-28813.63,705.15,-1300182.66,-648906.06,-41887.26
-564769.72,-1222435.88,-1113.65,-28775.81,734.93,-1300214.84,-648992.96,-41826.64
-564818.8,-1222469.67,-1133.5,-28774.74,736.27,-1300247.84,-649034.27,-41783.72
-564714.2,-1222343.61,-1128.14,-28896.51,731.97,-1300125.8,-648912.23,-41778.63
-564726.27,-1222374.18,-1123.31,-28850.38,706.23,-1300155.57,-648900.96,-41843.27
-564731.63,-1222403.15,-1101.85,-28813.63,705.15,-1300182.66,-648906.06,-41887.26
-564769.72,-1222435.88,-1113.65,-28775.81,734.93,-1300214.84,-648992.96,-41826.64
-564818.8,-1222469.67,-1133.5,-28774.74,736.27,-1300247.84,-649034.27,-41783.72
-564852.87,-1222501.05,-1147.18,-28773.94,718.03,-1300278.41,-649060.02,-41800.35
-564860.38,-1222532.43,-1145.84,-28749.26,699.79,-1300308.19,-649031.59,-41880.01
-564879.15,-1222564.35,-1126.26,-28693.2,702.2,-1300337.42,-649104.01,-41867.14
-564912.95,-1222595.2,-1116.87,-28656.45,725.81,-1300367.73,-649157.38,-41818.06
-564958.28,-1222628.73,-1138.33,-28678.72,739.49,-1300399.11,-649194.4,-41794.45
-564852.87,-1222501.05,-1147.18,-28773.94,718.03,-1300278.41,-649060.02,-41800.35
-564860.38,-1222532.43,-1145.84,-28749.26,699.79,-1300308.19,-649031.59,-41880.01
-564879.15,-1222564.35,-1126.26,-28693.2,702.2,-1300337.42,-649104.01,-41867.14
-564912.95,-1222595.2,-1116.87,-28656.45,725.81,-1300367.73,-649157.38,-41818.06
-564958.28,-1222628.73,-1138.33,-28678.72,739.49,-1300399.11,-649194.4,-41794.45
-564991.81,-1222660.91,-1145.3,-28669.87,719.37,-1300429.42,-649230.34,-41803.03
-565021.31,-1222691.76,-1129.21,-28619.71,698.98,-1300460.27,-649249.92,-41831.2
-565035.53,-1222723.14,-1102.92,-28570.89,708.37,-1300490.84,-649257.97,-41870.63
-565065.83,-1222756.13,-1105.07,-28558.02,735.19,-1300520.08,-649302.49,-41850.24
-565108.75,-1222785.64,-1123.04,-28552.38,739.75,-1300548.78,-649357.48,-41810.28
-564991.81,-1222660.91,-1145.3,-28669.87,719.37,-1300429.42,-649230.34,-41803.03
-565021.31,-1222691.76,-1129.21,-28619.71,698.98,-1300460.27,-649249.92,-41831.2
-565035.53,-1222723.14,-1102.92,-28570.89,708.37,-1300490.84,-649257.97,-41870.63
-565065.83,-1222756.13,-1105.07,-28558.02,735.19,-1300520.08,-649302.49,-41850.24
-565108.75,-1222785.64,-1123.04,-28552.38,739.75,-1300548.78,-649357.48,-41810.28
-565146.57,-1222815.94,-1142.62,-28525.83,720.44,-1300577.75,-649392.88,-41812.96
-565165.61,-1222849.74,-1126.8,-28486.13,690.13,-1300610.2,-649417.56,-41873.84
-565172.05,-1222882.19,-1111.78,-28466.82,697.91,-1300641.85,-649419.7,-41915.42
-565203.16,-1222915.45,-1107.48,-28449.92,720.71,-1300672.7,-649465.84,-41862.85
-565245.54,-1222947.64,-1125.45,-28471.11,729.29,-1300703.81,-649522.16,-41834.42
-565146.57,-1222815.94,-1142.62,-28525.83,720.44,-1300577.75,-649392.88,-41812.96
-565165.61,-1222849.74,-1126.8,-28486.13,690.13,-1300610.2,-649417.56,-41873.84
-565172.05,-1222882.19,-1111.78,-28466.82,697.91,-1300641.85,-649419.7,-41915.42
-565203.16,-1222915.45,-1107.48,-28449.92,720.71,-1300672.7,-649465.84,-41862.85
-565245.54,-1222947.64,-1125.45,-28471.11,729.29,-1300703.81,-649522.16,-41834.42
-565280.68,-1222979.02,-1143.16,-28458.24,715.08,-1300734.66,-649557.57,-41825.57
-565296.24,-1223009.33,-1137.79,-28399.77,703.54,-1300764.43,-649570.44,-41876.26
-565297.58,-1223040.71,-1119.55,-28361.68,697.37,-1300794.2,-649576.08,-41941.7
-565326.81,-1223072.9,-1124.38,-28370.26,714,-1300823.17,-649618.46,-41872.24
-565378.85,-1223104.01,-1142.62,-28372.41,727.42,-1300854.28,-649679.07,-41808.67
-565280.68,-1222979.02,-1143.16,-28458.24,715.08,-1300734.66,-649557.57,-41825.57
-565296.24,-1223009.33,-1137.79,-28399.77,703.54,-1300764.43,-649570.44,-41876.26
-565297.58,-1223040.71,-1119.55,-28361.68,697.37,-1300794.2,-649576.08,-41941.7
-565326.81,-1223072.9,-1124.38,-28370.26,714,-1300823.17,-649618.46,-41872.24
-565378.85,-1223104.01,-1142.62,-28372.41,727.42,-1300854.28,-649679.07,-41808.67
-565415.86,-1223136.2,-1152.01,-28346.12,715.88,-1300886.47,-649715.28,-41823.42
-565436.78,-1223166.24,-1121.16,-28294.62,685.04,-1300914.1,-649728.16,-41860.97
-565459.85,-1223196.01,-1092.46,-28234.27,694.96,-1300941.72,-649745.59,-41872.24
-565494.72,-1223229,-1092.73,-28206.65,719.64,-1300974.18,-649787.43,-41847.02
-565543,-1223264.14,-1116.87,-28229.45,727.95,-1301006.63,-649844.83,-41816.98
-565415.86,-1223136.2,-1152.01,-28346.12,715.88,-1300886.47,-649715.28,-41823.42
-565436.78,-1223166.24,-1121.16,-28294.62,685.04,-1300914.1,-649728.16,-41860.97
-565459.85,-1223196.01,-1092.46,-28234.27,694.96,-1300941.72,-649745.59,-41872.24
-565494.72,-1223229,-1092.73,-28206.65,719.64,-1300974.18,-649787.43,-41847.02
-565543,-1223264.14,-1116.87,-28229.45,727.95,-1301006.63,-649844.83,-41816.98
-565577.87,-1223295.25,-1139.4,-28209.87,718.56,-1301036.94,-649864.95,-41831.47
-565591.28,-1223324.76,-1141.28,-28167.22,706.23,-1301066.71,-649848.05,-41906.84
-565593.16,-1223356.68,-1133.23,-28157.3,700.86,-1301096.22,-649785.29,-41948.41
-565629.9,-1223389.94,-1127.06,-28168.83,709.98,-1301128.14,-649890.16,-41888.33
-565673.89,-1223421.86,-1144.77,-28175.27,719.37,-1301158.45,-649966.07,-41844.34
-565577.87,-1223295.25,-1139.4,-28209.87,718.56,-1301036.94,-649864.95,-41831.47
-565591.28,-1223324.76,-1141.28,-28167.22,706.23,-1301066.71,-649848.05,-41906.84
-565593.16,-1223356.68,-1133.23,-28157.3,700.86,-1301096.22,-649785.29,-41948.41
-565629.9,-1223389.94,-1127.06,-28168.83,709.98,-1301128.14,-649890.16,-41888.33
-565673.89,-1223421.86,-1144.77,-28175.27,719.37,-1301158.45,-649966.07,-41844.34
-565714.12,-1223453.77,-1152.01,-28153.81,703.81,-1301189.56,-650002.55,-41835.49
-565734.51,-1223484.89,-1130.82,-28132.08,693.89,-1301219.33,-649996.92,-41888.6
-565744.97,-1223514.39,-1114.99,-28091.85,708.1,-1301248.3,-649993.7,-41928.56
-565771.79,-1223545.24,-1106.95,-28070.66,727.68,-1301277.54,-650079.8,-41897.18
-565814.44,-1223576.89,-1125.19,-28085.14,741.36,-1301307.31,-650120.83,-41840.85
-565714.12,-1223453.77,-1152.01,-28153.81,703.81,-1301189.56,-650002.55,-41835.49
-565734.51,-1223484.89,-1130.82,-28132.08,693.89,-1301219.33,-649996.92,-41888.6
-565744.97,-1223514.39,-1114.99,-28091.85,708.1,-1301248.3,-649993.7,-41928.56
-565771.79,-1223545.24,-1106.95,-28070.66,727.68,-1301277.54,-650079.8,-41897.18
-565814.44,-1223576.89,-1125.19,-28085.14,741.36,-1301307.31,-650120.83,-41840.85
-565847.97,-1223610.41,-1151.74,-28075.76,727.42,-1301339.5,-650158.65,-41843.54
-565867.01,-1223643.14,-1141.55,-28021.58,710.79,-1301370.34,-650192.98,-41903.08
-565877.74,-1223674.25,-1121.7,-27984.56,712.39,-1301400.92,-650190.57,-41938.75
-565913.14,-1223706.97,-1124.11,-27965.25,734.39,-1301431.23,-650237.51,-41882.43
-565960.62,-1223739.16,-1146.38,-27963.91,740.29,-1301461.27,-650290.62,-41829.59
-565847.97,-1223610.41,-1151.74,-28075.76,727.42,-1301339.5,-650158.65,-41843.54
-565867.01,-1223643.14,-1141.55,-28021.58,710.79,-1301370.34,-650192.98,-41903.08
-565877.74,-1223674.25,-1121.7,-27984.56,712.39,-1301400.92,-650190.57,-41938.75
-565913.14,-1223706.97,-1124.11,-27965.25,734.39,-1301431.23,-650237.51,-41882.43
-565960.62,-1223739.16,-1146.38,-27963.91,740.29,-1301461.27,-650290.62,-41829.59
-565993.88,-1223771.35,-1153.62,-27980.81,721.25,-1301492.38,-650322.27,-41844.88
-566009.17,-1223803.27,-1134.84,-27943.79,701.93,-1301522.69,-650332.46,-41898.79
-566011.85,-1223833.04,-1117.14,-27923.68,698.45,-1301551.12,-650300.27,-41945.46
-566038.94,-1223865.76,-1123.85,-27919.65,719.9,-1301582.24,-650387.98,-41906.57
-566087.49,-1223897.95,-1145.57,-27953.98,728.49,-1301612.28,-650440.02,-41840.05
-565993.88,-1223771.35,-1153.62,-27980.81,721.25,-1301492.38,-650322.27,-41844.88
-566009.17,-1223803.27,-1134.84,-27943.79,701.93,-1301522.69,-650332.46,-41898.79
-566011.85,-1223833.04,-1117.14,-27923.68,698.45,-1301551.12,-650300.27,-41945.46
-566038.94,-1223865.76,-1123.85,-27919.65,719.9,-1301582.24,-650387.98,-41906.57
-566087.49,-1223897.95,-1145.57,-27953.98,728.49,-1301612.28,-650440.02,-41840.05
-566126.38,-1223928.26,-1152.55,-27944.33,717.22,-1301643.39,-650475.96,-41836.83
-566148.11,-1223956.96,-1134.57,-27885.59,700.32,-1301669.94,-650467.91,-41869.82
-566163.66,-1223988.61,-1119.55,-27847.23,713.2,-1301699.98,-650451.28,-41907.64
-566201.48,-1224023.21,-1114.19,-27847.77,735.19,-1301730.83,-650544.35,-41872.24
-566243.06,-1224057.27,-1141.01,-27871.1,752.09,-1301763.55,-650592.63,-41845.15
-566126.38,-1223928.26,-1152.55,-27944.33,717.22,-1301643.39,-650475.96,-41836.83
-566148.11,-1223956.96,-1134.57,-27885.59,700.32,-1301669.94,-650467.91,-41869.82
-566163.66,-1223988.61,-1119.55,-27847.23,713.2,-1301699.98,-650451.28,-41907.64
-566201.48,-1224023.21,-1114.19,-27847.77,735.19,-1301730.83,-650544.35,-41872.24
-566243.06,-1224057.27,-1141.01,-27871.1,752.09,-1301763.55,-650592.63,-41845.15
-566276.58,-1224089.19,-1155.76,-27870.84,740.02,-1301794.67,-650628.84,-41864.99
-566291.34,-1224119.5,-1142.35,-27833.02,727.42,-1301824.98,-650644.13,-41917.3
-566299.38,-1224150.61,-1127.06,-27804.58,734.93,-1301855.02,-650602.83,-41943.85
-566327.55,-1224183.6,-1130.82,-27825.24,748.6,-1301886.67,-650661.57,-41907.91
-566376.63,-1224217.4,-1145.04,-27837.31,750.21,-1301917.51,-650738.55,-41843.8
-566276.58,-1224089.19,-1155.76,-27870.84,740.02,-1301794.67,-650628.84,-41864.99
-566291.34,-1224119.5,-1142.35,-27833.02,727.42,-1301824.98,-650644.13,-41917.3
-566299.38,-1224150.61,-1127.06,-27804.58,734.93,-1301855.02,-650602.83,-41943.85
-566327.55,-1224183.6,-1130.82,-27825.24,748.6,-1301886.67,-650661.57,-41907.91
-566376.63,-1224217.4,-1145.04,-27837.31,750.21,-1301917.51,-650738.55,-41843.8
-566410.69,-1224249.05,-1153.35,-27845.09,740.56,-1301948.62,-650772.88,-41847.56
-566423.3,-1224280.43,-1145.3,-27815.05,734.12,-1301979.2,-650791.65,-41913.54
-566431.62,-1224311.01,-1117.14,-27757.38,742.17,-1302007.9,-650824.91,-41951.63
-566461.66,-1224341.32,-1119.55,-27732.43,762.02,-1302036.6,-650867.29,-41910.05
-566504.57,-1224375.92,-1141.01,-27751.21,766.58,-1302069.06,-650895.46,-41869.29
-566410.69,-1224249.05,-1153.35,-27845.09,740.56,-1301948.62,-650772.88,-41847.56
-566423.3,-1224280.43,-1145.3,-27815.05,734.12,-1301979.2,-650791.65,-41913.54
-566431.62,-1224311.01,-1117.14,-27757.38,742.17,-1302007.9,-650824.91,-41951.63
-566461.66,-1224341.32,-1119.55,-27732.43,762.02,-1302036.6,-650867.29,-41910.05
-566504.57,-1224375.92,-1141.01,-27751.21,766.58,-1302069.06,-650895.46,-41869.29
,,,,,,,
-566686.16,-1224567.69,-1153.89,-27602.88,730.63,-1302255.2,-651109.76,-41873.04
-566699.3,-1224598.54,-1145.04,-27573.38,708.37,-1302284.97,-651140.34,-41928.03
-566717.81,-1224629.92,-1114.19,-27521.61,704.35,-1302314.21,-651150,-41930.71
-566751.87,-1224663.18,-1113.65,-27516.78,736.53,-1302345.59,-651205.79,-41891.82
-566794.25,-1224695.1,-1131.62,-27522.15,743.24,-1302376.71,-651246.29,-41868.21
-566686.16,-1224567.69,-1153.89,-27602.88,730.63,-1302255.2,-651109.76,-41873.04
-566699.3,-1224598.54,-1145.04,-27573.38,708.37,-1302284.97,-651140.34,-41928.03
-566717.81,-1224629.92,-1114.19,-27521.61,704.35,-1302314.21,-651150,-41930.71
-566751.87,-1224663.18,-1113.65,-27516.78,736.53,-1302345.59,-651205.79,-41891.82
-566794.25,-1224695.1,-1131.62,-27522.15,743.24,-1302376.71,-651246.29,-41868.21
-566824.29,-1224722.19,-1138.87,-27513.3,720.44,-1302403.53,-651277.13,-41879.21
-566845.75,-1224750.89,-1109.63,-27488.62,713.47,-1302431.96,-651229.93,-41917.3
-566860.5,-1224784.69,-1091.39,-27459.65,726.88,-1302465.75,-651273.92,-41948.41
-566894.83,-1224818.21,-1091.66,-27438.73,753.97,-1302499.82,-651358.14,-41907.37
-566941.24,-1224848.79,-1108.83,-27452.14,763.89,-1302529.86,-651401.86,-41868.75
-566824.29,-1224722.19,-1138.87,-27513.3,720.44,-1302403.53,-651277.13,-41879.21
-566845.75,-1224750.89,-1109.63,-27488.62,713.47,-1302431.96,-651229.93,-41917.3
-566860.5,-1224784.69,-1091.39,-27459.65,726.88,-1302465.75,-651273.92,-41948.41
-566894.83,-1224818.21,-1091.66,-27438.73,753.97,-1302499.82,-651358.14,-41907.37
-566941.24,-1224848.79,-1108.83,-27452.14,763.89,-1302529.86,-651401.86,-41868.75
-566972.35,-1224878.29,-1116.6,-27428,743.78,-1302559.9,-651437.26,-41888.06
-566994.07,-1224907.53,-1101.58,-27370.07,719.37,-1302586.99,-651456.57,-41916.22
-567002.93,-1224937.3,-1082.54,-27345.66,723.66,-1302615.96,-651432.43,-41972.28
-567034.31,-1224968.15,-1095.68,-27330.1,750.75,-1302645.46,-651511.83,-41934.19
-567078.56,-1224998.19,-1116.6,-27305.96,753.97,-1302674.43,-651558.23,-41879.75
-566972.35,-1224878.29,-1116.6,-27428,743.78,-1302559.9,-651437.26,-41888.06
-566994.07,-1224907.53,-1101.58,-27370.07,719.37,-1302586.99,-651456.57,-41916.22
-567002.93,-1224937.3,-1082.54,-27345.66,723.66,-1302615.96,-651432.43,-41972.28
-567034.31,-1224968.15,-1095.68,-27330.1,750.75,-1302645.46,-651511.83,-41934.19
-567078.56,-1224998.19,-1116.6,-27305.96,753.97,-1302674.43,-651558.23,-41879.75
-567115.04,-1225028.23,-1135.65,-27306.23,739.22,-1302704.2,-651587.73,-41888.87
-567122.28,-1225058.54,-1126.26,-27296.31,720.44,-1302732.37,-651578.88,-41952.97
-567129.53,-1225085.36,-1106.95,-27270.02,728.22,-1302758.38,-651589.07,-41985.69
-567166.54,-1225116.21,-1100.51,-27235.69,752.9,-1302786.55,-651669.27,-41921.59
-567214.55,-1225150.54,-1121.7,-27257.15,764.16,-1302818.47,-651711.65,-41884.84
-567115.04,-1225028.23,-1135.65,-27306.23,739.22,-1302704.2,-651587.73,-41888.87
-567122.28,-1225058.54,-1126.26,-27296.31,720.44,-1302732.37,-651578.88,-41952.97
-567129.53,-1225085.36,-1106.95,-27270.02,728.22,-1302758.38,-651589.07,-41985.69
-567166.54,-1225116.21,-1100.51,-27235.69,752.9,-1302786.55,-651669.27,-41921.59
-567214.55,-1225150.54,-1121.7,-27257.15,764.16,-1302818.47,-651711.65,-41884.84
-567245.93,-1225182.19,-1135.65,-27249.64,738.68,-1302847.97,-651744.64,-41896.38
-567261.76,-1225210.89,-1123.04,-27210.21,723.93,-1302876.13,-651723.99,-41935.54
-567271.15,-1225240.12,-1097.02,-27169.44,730.63,-1302904.3,-651722.38,-41985.96
-567302.53,-1225273.12,-1101.05,-27169.97,739.75,-1302934.07,-651781.93,-41936.07
-567351.88,-1225305.03,-1122.24,-27183.92,749.14,-1302963.57,-651850.32,-41876.26
-567245.93,-1225182.19,-1135.65,-27249.64,738.68,-1302847.97,-651744.64,-41896.38
-567261.76,-1225210.89,-1123.04,-27210.21,723.93,-1302876.13,-651723.99,-41935.54
-567271.15,-1225240.12,-1097.02,-27169.44,730.63,-1302904.3,-651722.38,-41985.96
-567302.53,-1225273.12,-1101.05,-27169.97,739.75,-1302934.07,-651781.93,-41936.07
-567351.88,-1225305.03,-1122.24,-27183.92,749.14,-1302963.57,-651850.32,-41876.26
-567385.68,-1225336.42,-1130.82,-27181.24,737.61,-1302992.54,-651886.53,-41884.84
-567391.31,-1225366.46,-1119.82,-27120.09,728.49,-1303020.97,-651895.38,-41957.53
-567396.94,-1225398.11,-1102.66,-27089.78,727.95,-1303051.28,-651872.05,-42009.56
-567431.54,-1225430.03,-1105.07,-27108.02,745.12,-1303082.13,-651902.89,-41935.27
-567476.34,-1225461.14,-1122.5,-27092.73,756.92,-1303112.17,-651980.68,-41887.52
-567385.68,-1225336.42,-1130.82,-27181.24,737.61,-1302992.54,-651886.53,-41884.84
-567391.31,-1225366.46,-1119.82,-27120.09,728.49,-1303020.97,-651895.38,-41957.53
-567396.94,-1225398.11,-1102.66,-27089.78,727.95,-1303051.28,-651872.05,-42009.56
-567431.54,-1225430.03,-1105.07,-27108.02,745.12,-1303082.13,-651902.89,-41935.27
-567476.34,-1225461.14,-1122.5,-27092.73,756.92,-1303112.17,-651980.68,-41887.52
-567517.64,-1225492.52,-1126.8,-27067.25,732.51,-1303141.94,-652026.27,-41887.79
-567532.66,-1225524.44,-1109.09,-27045.25,718.03,-1303172.52,-652025.74,-41963.7
-567544.73,-1225556.89,-1092.73,-27017.89,722.59,-1303202.56,-652015.28,-41995.89
-567583.09,-1225590.15,-1091.12,-26998.85,745.65,-1303235.01,-652100.84,-41927.49
-567628.95,-1225622.07,-1112.85,-27015.21,757.99,-1303266.66,-652146.97,-41887.79
-567517.64,-1225492.52,-1126.8,-27067.25,732.51,-1303141.94,-652026.27,-41887.79
-567532.66,-1225524.44,-1109.09,-27045.25,718.03,-1303172.52,-652025.74,-41963.7
-567544.73,-1225556.89,-1092.73,-27017.89,722.59,-1303202.56,-652015.28,-41995.89
-567583.09,-1225590.15,-1091.12,-26998.85,745.65,-1303235.01,-652100.84,-41927.49
-567628.95,-1225622.07,-1112.85,-27015.21,757.99,-1303266.66,-652146.97,-41887.79
-567669.99,-1225653.72,-1124.65,-26992.95,739.75,-1303296.17,-652184.53,-41888.06
-567692.52,-1225684.03,-1108.83,-26950.3,707.57,-1303324.87,-652216.98,-41918.64
-567704.86,-1225714.61,-1085.49,-26909.26,717.22,-1303355.44,-652220.47,-41960.21
-567731.68,-1225746.79,-1085.49,-26921.33,740.29,-1303386.29,-652262.85,-41950.56
-567775.67,-1225778.71,-1110.43,-26908.46,743.78,-1303415.79,-652315.95,-41896.91
-567669.99,-1225653.72,-1124.65,-26992.95,739.75,-1303296.17,-652184.53,-41888.06
-567692.52,-1225684.03,-1108.83,-26950.3,707.57,-1303324.87,-652216.98,-41918.64
-567704.86,-1225714.61,-1085.49,-26909.26,717.22,-1303355.44,-652220.47,-41960.21
-567731.68,-1225746.79,-1085.49,-26921.33,740.29,-1303386.29,-652262.85,-41950.56
-567775.67,-1225778.71,-1110.43,-26908.46,743.78,-1303415.79,-652315.95,-41896.91
-567812.95,-1225809.56,-1123.85,-26895.85,726.34,-1303446.64,-652350.82,-41903.89
-567824.22,-1225836.65,-1115.8,-26851.33,715.61,-1303473.19,-652346.53,-41973.09
-567834.95,-1225864.81,-1097.56,-26799.02,721.25,-1303500.28,-652375.23,-42007.69
-567873.03,-1225897.53,-1094.07,-26785.35,737.34,-1303530.06,-652440.14,-41950.29
-567914.07,-1225931.6,-1111.24,-26813.24,744.58,-1303562.24,-652479.3,-41904.42
-567812.95,-1225809.56,-1123.85,-26895.85,726.34,-1303446.64,-652350.82,-41903.89
-567824.22,-1225836.65,-1115.8,-26851.33,715.61,-1303473.19,-652346.53,-41973.09
-567834.95,-1225864.81,-1097.56,-26799.02,721.25,-1303500.28,-652375.23,-42007.69
-567873.03,-1225897.53,-1094.07,-26785.35,737.34,-1303530.06,-652440.14,-41950.29
-567914.07,-1225931.6,-1111.24,-26813.24,744.58,-1303562.24,-652479.3,-41904.42
-567950.01,-1225962.71,-1120.36,-26831.21,726.61,-1303593.36,-652514.44,-41912.2
-567961.82,-1225992.48,-1113.12,-26806.53,719.1,-1303622.06,-652495.93,-41971.75
-567972.54,-1226021.99,-1095.68,-26761.74,721.25,-1303650.22,-652494.32,-41991.86
-567998.56,-1226052.03,-1101.58,-26770.86,743.24,-1303678.92,-652568.89,-41959.41
-568044.7,-1226082.87,-1130.28,-26764.96,753.97,-1303709.76,-652625.48,-41906.84
-567950.01,-1225962.71,-1120.36,-26831.21,726.61,-1303593.36,-652514.44,-41912.2
-567961.82,-1225992.48,-1113.12,-26806.53,719.1,-1303622.06,-652495.93,-41971.75
-567972.54,-1226021.99,-1095.68,-26761.74,721.25,-1303650.22,-652494.32,-41991.86
-567998.56,-1226052.03,-1101.58,-26770.86,743.24,-1303678.92,-652568.89,-41959.41
-568044.7,-1226082.87,-1130.28,-26764.96,753.97,-1303709.76,-652625.48,-41906.84
-568075.01,-1226112.65,-1143.43,-26758.79,735.19,-1303739,-652661.69,-41927.22
-568084.93,-1226141.35,-1128.41,-26712.12,722.32,-1303768.24,-652685.83,-41977.38
-568091.1,-1226171.39,-1108.02,-26671.35,730.1,-1303796.94,-652650.16,-42025.66
-568118.73,-1226201.16,-1105.07,-26666.52,749.14,-1303826.71,-652681.81,-41984.08
-568159.23,-1226231.47,-1110.97,-26662.5,761.21,-1303855.94,-652771.66,-41946.26
-568075.01,-1226112.65,-1143.43,-26758.79,735.19,-1303739,-652661.69,-41927.22
-568084.93,-1226141.35,-1128.41,-26712.12,722.32,-1303768.24,-652685.83,-41977.38
-568091.1,-1226171.39,-1108.02,-26671.35,730.1,-1303796.94,-652650.16,-42025.66
-568118.73,-1226201.16,-1105.07,-26666.52,749.14,-1303826.71,-652681.81,-41984.08
-568159.23,-1226231.47,-1110.97,-26662.5,761.21,-1303855.94,-652771.66,-41946.26
-568184.98,-1226260.71,-1111.24,-26639.7,748.07,-1303884.64,-652807.87,-41960.48
-568197.05,-1226291.82,-1092.73,-26602.15,740.02,-1303914.42,-652776.49,-42001.79
-568208.31,-1226322.66,-1072.08,-26553.87,756.11,-1303943.38,-652741.62,-42021.9
-568240.5,-1226355.12,-1072.08,-26526.24,779.99,-1303973.96,-652862.32,-41967.99
-568284.22,-1226388.11,-1088.17,-26507.74,793.4,-1304004.54,-652909.79,-41906.3
-568184.98,-1226260.71,-1111.24,-26639.7,748.07,-1303884.64,-652807.87,-41960.48
-568197.05,-1226291.82,-1092.73,-26602.15,740.02,-1303914.42,-652776.49,-42001.79
-568208.31,-1226322.66,-1072.08,-26553.87,756.11,-1303943.38,-652741.62,-42021.9
-568240.5,-1226355.12,-1072.08,-26526.24,779.99,-1303973.96,-652862.32,-41967.99
-568284.22,-1226388.11,-1088.17,-26507.74,793.4,-1304004.54,-652909.79,-41906.3
-568324.45,-1226418.42,-1099.44,-26462.68,763.89,-1304033.77,-652946,-41906.03
-568339.2,-1226448.46,-1087.37,-26421.64,745.92,-1304063.28,-652979.26,-41958.87
-568342.69,-1226478.23,-1072.08,-26398.57,750.75,-1304091.71,-652929.37,-42006.61
-568362.27,-1226509.61,-1080.93,-26411.18,769.79,-1304120.14,-652963.44,-41979.26
-568404.92,-1226542.34,-1094.07,-26404.74,768.72,-1304150.45,-653055.44,-41917.56
-568324.45,-1226418.42,-1099.44,-26462.68,763.89,-1304033.77,-652946,-41906.03
-568339.2,-1226448.46,-1087.37,-26421.64,745.92,-1304063.28,-652979.26,-41958.87
-568342.69,-1226478.23,-1072.08,-26398.57,750.75,-1304091.71,-652929.37,-42006.61
-568362.27,-1226509.61,-1080.93,-26411.18,769.79,-1304120.14,-652963.44,-41979.26
-568404.92,-1226542.34,-1094.07,-26404.74,768.72,-1304150.45,-653055.44,-41917.56
-568446.76,-1226570.77,-1106.14,-26372.55,751.56,-1304179.95,-653081.19,-41918.1
-568462.32,-1226597.32,-1097.29,-26331.52,737.34,-1304205.44,-653067.78,-41982.21
-568477.07,-1226628.97,-1082.54,-26293.7,746.46,-1304234.14,-653075.56,-42002.05
-568511.67,-1226661.16,-1091.12,-26273.31,762.82,-1304266.32,-653164.87,-41952.43
-568555.66,-1226694.42,-1116.34,-26279.48,761.21,-1304297.97,-653207.25,-41911.93
-568446.76,-1226570.77,-1106.14,-26372.55,751.56,-1304179.95,-653081.19,-41918.1
-568462.32,-1226597.32,-1097.29,-26331.52,737.34,-1304205.44,-653067.78,-41982.21
-568477.07,-1226628.97,-1082.54,-26293.7,746.46,-1304234.14,-653075.56,-42002.05
-568511.67,-1226661.16,-1091.12,-26273.31,762.82,-1304266.32,-653164.87,-41952.43
-568555.66,-1226694.42,-1116.34,-26279.48,761.21,-1304297.97,-653207.25,-41911.93
-568586.77,-1226726.87,-1112.85,-26254.8,722.86,-1304327.48,-653239.71,-41942.78
-568595.09,-1226756.38,-1096.49,-26246.22,701.67,-1304357.25,-653129.47,-42030.75
-568605.28,-1226786.42,-1083.61,-26223.15,711.86,-1304387.02,-653047.93,-42084.93
-568650.34,-1226817.8,-1087.64,-26193.11,725.81,-1304416.79,-653220.39,-41983.28
-568697.81,-1226850.52,-1103.73,-26194.99,722.32,-1304447.64,-653304.35,-41928.56
-568586.77,-1226726.87,-1112.85,-26254.8,722.86,-1304327.48,-653239.71,-41942.78
-568595.09,-1226756.38,-1096.49,-26246.22,701.67,-1304357.25,-653129.47,-42030.75
-568605.28,-1226786.42,-1083.61,-26223.15,711.86,-1304387.02,-653047.93,-42084.93
-568650.34,-1226817.8,-1087.64,-26193.11,725.81,-1304416.79,-653220.39,-41983.28
-568697.81,-1226850.52,-1103.73,-26194.99,722.32,-1304447.64,-653304.35,-41928.56
-568734.29,-1226881.91,-1108.83,-26201.7,705.42,-1304477.41,-653312.39,-41930.71
-568740.19,-1226911.41,-1094.61,-26186.41,690.94,-1304506.11,-653213.69,-42038
-568754.68,-1226942.25,-1083.34,-26159.59,703.54,-1304536.15,-653214.23,-42061.06
-568784.99,-1226973.9,-1094.34,-26157.44,727.42,-1304565.66,-653321.25,-42016.27
-568828.71,-1227007.16,-1116.87,-26180.78,729.02,-1304597.04,-653407.34,-41950.82
-568734.29,-1226881.91,-1108.83,-26201.7,705.42,-1304477.41,-653312.39,-41930.71
-568740.19,-1226911.41,-1094.61,-26186.41,690.94,-1304506.11,-653213.69,-42038
-568754.68,-1226942.25,-1083.34,-26159.59,703.54,-1304536.15,-653214.23,-42061.06
-568784.99,-1226973.9,-1094.34,-26157.44,727.42,-1304565.66,-653321.25,-42016.27
-568828.71,-1227007.16,-1116.87,-26180.78,729.02,-1304597.04,-653407.34,-41950.82
,,,,,,,
-568968.18,-1227196.26,-1118.75,-26141.88,694.96,-1304779.43,-653517.05,-41994.81
-568965.5,-1227226.84,-1097.83,-26127.4,674.58,-1304806.52,-653382.4,-42094.59
-568982.4,-1227256.88,-1079.59,-26105.94,682.62,-1304835.49,-653319.64,-42103.98
-569013.78,-1227289.06,-1079.32,-26104.33,701.93,-1304866.33,-653406,-42049.26
-569063.4,-1227322.59,-1095.95,-26135.18,710.25,-1304898.52,-653544.14,-41966.38
-568968.18,-1227196.26,-1118.75,-26141.88,694.96,-1304779.43,-653517.05,-41994.81
-568965.5,-1227226.84,-1097.83,-26127.4,674.58,-1304806.52,-653382.4,-42094.59
-568982.4,-1227256.88,-1079.59,-26105.94,682.62,-1304835.49,-653319.64,-42103.98
-569013.78,-1227289.06,-1079.32,-26104.33,701.93,-1304866.33,-653406,-42049.26
-569063.4,-1227322.59,-1095.95,-26135.18,710.25,-1304898.52,-653544.14,-41966.38
-569094.78,-1227351.02,-1103.46,-26132.5,698.18,-1304925.88,-653565.33,-41977.11
-569107.12,-1227378.92,-1088.71,-26087.7,690.94,-1304952.7,-653588.93,-42028.88
-569115.43,-1227410.84,-1065.91,-26050.69,696.84,-1304982.47,-653570.96,-42058.11
-569148.43,-1227445.97,-1061.89,-26060.34,711.05,-1305014.66,-653605.83,-42025.66
-569198.85,-1227479.5,-1072.62,-26074.56,715.61,-1305046.31,-653697.02,-41941.7
-569094.78,-1227351.02,-1103.46,-26132.5,698.18,-1304925.88,-653565.33,-41977.11
-569107.12,-1227378.92,-1088.71,-26087.7,690.94,-1304952.7,-653588.93,-42028.88
-569115.43,-1227410.84,-1065.91,-26050.69,696.84,-1304982.47,-653570.96,-42058.11
-569148.43,-1227445.97,-1061.89,-26060.34,711.05,-1305014.66,-653605.83,-42025.66
-569198.85,-1227479.5,-1072.62,-26074.56,715.61,-1305046.31,-653697.02,-41941.7
-569221.11,-1227511.42,-1073.69,-26093.6,705.69,-1305077.15,-653718.48,-41998.03
-569227.28,-1227542.53,-1059.47,-26088.24,699.79,-1305105.59,-653578.47,-42083.59
-569241.5,-1227573.11,-1038.01,-26061.69,706.23,-1305134.28,-653534.21,-42082.25
-569275.03,-1227605.03,-1036.94,-26055.52,727.15,-1305163.79,-653688.98,-42035.31
-569320.36,-1227636.95,-1052.5,-26067.59,734.39,-1305193.03,-653776.95,-41970.94
-569221.11,-1227511.42,-1073.69,-26093.6,705.69,-1305077.15,-653718.48,-41998.03
-569227.28,-1227542.53,-1059.47,-26088.24,699.79,-1305105.59,-653578.47,-42083.59
-569241.5,-1227573.11,-1038.01,-26061.69,706.23,-1305134.28,-653534.21,-42082.25
-569275.03,-1227605.03,-1036.94,-26055.52,727.15,-1305163.79,-653688.98,-42035.31
-569320.36,-1227636.95,-1052.5,-26067.59,734.39,-1305193.03,-653776.95,-41970.94
-569350.13,-1227668.6,-1065.91,-26046.93,722.05,-1305222.53,-653792.51,-41975.5
-569356.56,-1227699.71,-1058.13,-26032.18,711.86,-1305251.23,-653740.21,-42058.38
-569366.49,-1227729.21,-1051.96,-26006.43,723.66,-1305278.05,-653686.29,-42068.84
-569403.5,-1227760.06,-1051.96,-25995.97,734.93,-1305307.02,-653828.72,-42002.86
-569449.37,-1227794.93,-1073.42,-25998.65,746.73,-1305339.21,-653894.7,-41959.94
-569350.13,-1227668.6,-1065.91,-26046.93,722.05,-1305222.53,-653792.51,-41975.5
-569356.56,-1227699.71,-1058.13,-26032.18,711.86,-1305251.23,-653740.21,-42058.38
-569366.49,-1227729.21,-1051.96,-26006.43,723.66,-1305278.05,-653686.29,-42068.84
-569403.5,-1227760.06,-1051.96,-25995.97,734.93,-1305307.02,-653828.72,-42002.86
-569449.37,-1227794.93,-1073.42,-25998.65,746.73,-1305339.21,-653894.7,-41959.94
-569474.05,-1227827.38,-1084.15,-25981.76,727.95,-1305368.98,-653861.71,-41986.23
-569474.31,-1227856.89,-1078.52,-25979.61,710.25,-1305396.87,-653766.49,-42087.62
-569479.95,-1227886.93,-1060.81,-25963.78,710.25,-1305425.57,-653712.04,-42137.24
-569521.52,-1227919.38,-1055.99,-25939.64,719.9,-1305455.08,-653861.17,-42047.65
-569577.04,-1227953.18,-1078.25,-25935.35,730.63,-1305485.39,-653967.93,-41952.97
-569474.05,-1227827.38,-1084.15,-25981.76,727.95,-1305368.98,-653861.71,-41986.23
-569474.31,-1227856.89,-1078.52,-25979.61,710.25,-1305396.87,-653766.49,-42087.62
-569479.95,-1227886.93,-1060.81,-25963.78,710.25,-1305425.57,-653712.04,-42137.24
-569521.52,-1227919.38,-1055.99,-25939.64,719.9,-1305455.08,-653861.17,-42047.65
-569577.04,-1227953.18,-1078.25,-25935.35,730.63,-1305485.39,-653967.93,-41952.97
-569607.08,-1227984.29,-1085.49,-25936.16,718.56,-1305514.09,-653989.38,-41976.31
-569617.28,-1228014.33,-1069.4,-25901.83,706.76,-1305542.25,-653925.01,-42070.45
-569629.88,-1228045.98,-1043.92,-25870.18,711.05,-1305571.75,-653979.46,-42099.96
-569658.05,-1228078.17,-1040.43,-25872.32,737.34,-1305600.72,-654042.76,-42072.33
-569700.96,-1228110.89,-1064.03,-25911.48,752.63,-1305629.42,-654075.75,-42001.79
-569607.08,-1227984.29,-1085.49,-25936.16,718.56,-1305514.09,-653989.38,-41976.31
-569617.28,-1228014.33,-1069.4,-25901.83,706.76,-1305542.25,-653925.01,-42070.45
-569629.88,-1228045.98,-1043.92,-25870.18,711.05,-1305571.75,-653979.46,-42099.96
-569658.05,-1228078.17,-1040.43,-25872.32,737.34,-1305600.72,-654042.76,-42072.33
-569700.96,-1228110.89,-1064.03,-25911.48,752.63,-1305629.42,-654075.75,-42001.79
-569737.17,-1228140.93,-1079.32,-25887.34,741.9,-1305657.05,-654130.47,-41966.92
-569750.04,-1228172.05,-1058.13,-25842.28,727.95,-1305687.36,-654069.05,-42035.85
-569754.6,-1228198.87,-1029.43,-25832.09,729.29,-1305716.59,-653956.93,-42117.12
-569787.6,-1228226.23,-1036.41,-25843.09,755.31,-1305746.36,-654053.49,-42051.41
-569821.93,-1228264.85,-1048.74,-25866.96,756.92,-1305774.8,-654191.35,-41994.81
-569737.17,-1228140.93,-1079.32,-25887.34,741.9,-1305657.05,-654130.47,-41966.92
-569750.04,-1228172.05,-1058.13,-25842.28,727.95,-1305687.36,-654069.05,-42035.85
-569754.6,-1228198.87,-1029.43,-25832.09,729.29,-1305716.59,-653956.93,-42117.12
-569787.6,-1228226.23,-1036.41,-25843.09,755.31,-1305746.36,-654053.49,-42051.41
-569821.93,-1228264.85,-1048.74,-25866.96,756.92,-1305774.8,-654191.35,-41994.81
-569851.97,-1228296.23,-1054.64,-25869.64,746.19,-1305803.76,-654221.66,-42020.29
-569858.14,-1228326.81,-1043.38,-25849.25,739.75,-1305833,-654121.35,-42103.17
-569869.4,-1228358.19,-1023.53,-25826.72,741.09,-1305860.9,-654060.73,-42121.14
-569903.2,-1228390.65,-1024.87,-25794.54,760.67,-1305890.94,-654213.62,-42056.77
-569958.18,-1228422.83,-1044.72,-25788.1,765.5,-1305918.56,-654297.84,-41968.8
-569851.97,-1228296.23,-1054.64,-25869.64,746.19,-1305803.76,-654221.66,-42020.29
-569858.14,-1228326.81,-1043.38,-25849.25,739.75,-1305833,-654121.35,-42103.17
-569869.4,-1228358.19,-1023.53,-25826.72,741.09,-1305860.9,-654060.73,-42121.14
-569903.2,-1228390.65,-1024.87,-25794.54,760.67,-1305890.94,-654213.62,-42056.77
-569958.18,-1228422.83,-1044.72,-25788.1,765.5,-1305918.56,-654297.84,-41968.8
-569985.54,-1228455.02,-1057.33,-25775.23,749.68,-1305948.6,-654319.56,-42004.47
-569996,-1228484.26,-1046.06,-25731.51,733.32,-1305975.96,-654231.05,-42076.89
-570011.02,-1228512.96,-1030.5,-25715.41,742.97,-1306002.25,-654308.57,-42085.2
-570042.94,-1228544.87,-1044.18,-25722.92,768.18,-1306032.56,-654343.97,-42029.95
-570078.08,-1228579.21,-1068.59,-25731.51,772.74,-1306063.4,-654421.22,-41994.54
-569985.54,-1228455.02,-1057.33,-25775.23,749.68,-1305948.6,-654319.56,-42004.47
-569996,-1228484.26,-1046.06,-25731.51,733.32,-1305975.96,-654231.05,-42076.89
-570011.02,-1228512.96,-1030.5,-25715.41,742.97,-1306002.25,-654308.57,-42085.2
-570042.94,-1228544.87,-1044.18,-25722.92,768.18,-1306032.56,-654343.97,-42029.95
-570078.08,-1228579.21,-1068.59,-25731.51,772.74,-1306063.4,-654421.22,-41994.54
-570101.41,-1228612.47,-1073.96,-25729.63,751.02,-1306093.71,-654456.89,-42022.17
-570122.87,-1228642.51,-1057.33,-25671.96,733.05,-1306123.22,-654388.76,-42068.84
-570126.09,-1228672.82,-1031.85,-25659.89,732.51,-1306149.23,-654326,-42123.02
-570152.11,-1228705.81,-1033.46,-25662.84,755.85,-1306177.93,-654466.28,-42090.3
-570194.49,-1228738.26,-1052.23,-25659.09,764.7,-1306207.7,-654537.9,-42036.66
-570101.41,-1228612.47,-1073.96,-25729.63,751.02,-1306093.71,-654456.89,-42022.17
-570122.87,-1228642.51,-1057.33,-25671.96,733.05,-1306123.22,-654388.76,-42068.84
-570126.09,-1228672.82,-1031.85,-25659.89,732.51,-1306149.23,-654326,-42123.02
-570152.11,-1228705.81,-1033.46,-25662.84,755.85,-1306177.93,-654466.28,-42090.3
-570194.49,-1228738.26,-1052.23,-25659.09,764.7,-1306207.7,-654537.9,-42036.66
-570224.8,-1228768.57,-1068.86,-25647.02,755.85,-1306236.94,-654568.74,-42031.56
-570223.99,-1228797.81,-1053.3,-25602.76,735.19,-1306264.3,-654481.84,-42128.39
-570243.03,-1228829.99,-1045.26,-25562.53,741.9,-1306293.54,-654378.57,-42118.73
-570274.15,-1228861.64,-1038.55,-25570.3,752.09,-1306322.24,-654509.73,-42081.98
-570329.4,-1228892.49,-1060.01,-25587.2,773.01,-1306351.2,-654629.09,-41982.21
-570224.8,-1228768.57,-1068.86,-25647.02,755.85,-1306236.94,-654568.74,-42031.56
-570223.99,-1228797.81,-1053.3,-25602.76,735.19,-1306264.3,-654481.84,-42128.39
-570243.03,-1228829.99,-1045.26,-25562.53,741.9,-1306293.54,-654378.57,-42118.73
-570274.15,-1228861.64,-1038.55,-25570.3,752.09,-1306322.24,-654509.73,-42081.98
-570329.4,-1228892.49,-1060.01,-25587.2,773.01,-1306351.2,-654629.09,-41982.21
-570359.17,-1228925.21,-1076.91,-25551.53,763.36,-1306379.37,-654635.26,-42011.17
-570359.44,-1228956.06,-1060.55,-25523.1,728.22,-1306408.6,-654519.39,-42121.95
-570369.37,-1228973.76,-1046.6,-25498.96,729.29,-1306437.84,-654454.21,-42139.65
-570405.58,-1229001.12,-1057.06,-25498.15,749.68,-1306466.81,-654603.88,-42066.96
-570441.25,-1229045.64,-1070.2,-25514.25,746.46,-1306495.77,-654713.58,-42025.93
-570359.17,-1228925.21,-1076.91,-25551.53,763.36,-1306379.37,-654635.26,-42011.17
-570359.44,-1228956.06,-1060.55,-25523.1,728.22,-1306408.6,-654519.39,-42121.95
-570369.37,-1228973.76,-1046.6,-25498.96,729.29,-1306437.84,-654454.21,-42139.65
-570405.58,-1229001.12,-1057.06,-25498.15,749.68,-1306466.81,-654603.88,-42066.96
-570441.25,-1229045.64,-1070.2,-25514.25,746.46,-1306495.77,-654713.58,-42025.93
-570469.68,-1229077.56,-1077.98,-25495.74,731.44,-1306525.28,-654734.5,-42020.29
-570476.39,-1229096.34,-1062.96,-25471.33,719.1,-1306551.56,-654629.9,-42101.56
-570487.12,-1229117.26,-1046.06,-25448,727.95,-1306579.46,-654583.49,-42113.9
-570515.01,-1229163.93,-1048.48,-25433.78,736.53,-1306609.23,-654684.08,-42069.91
-570566.24,-1229195.31,-1058.13,-25437,735.73,-1306638.2,-654794.31,-42010.1
-570469.68,-1229077.56,-1077.98,-25495.74,731.44,-1306525.28,-654734.5,-42020.29
-570476.39,-1229096.34,-1062.96,-25471.33,719.1,-1306551.56,-654629.9,-42101.56
-570487.12,-1229117.26,-1046.06,-25448,727.95,-1306579.46,-654583.49,-42113.9
-570515.01,-1229163.93,-1048.48,-25433.78,736.53,-1306609.23,-654684.08,-42069.91
-570566.24,-1229195.31,-1058.13,-25437,735.73,-1306638.2,-654794.31,-42010.1
-570590.65,-1229222.94,-1060.81,-25428.15,719.64,-1306666.9,-654812.82,-42049.53
-570602.72,-1229243.59,-1047.4,-25406.15,718.83,-1306692.11,-654731.55,-42087.62
-570616.13,-1229280.6,-1035.6,-25394.62,731.71,-1306719.74,-654716.26,-42104.25
-570648.59,-1229313.86,-1040.97,-25383.62,746.19,-1306751.39,-654837.77,-42056.77
-570694.99,-1229348.2,-1064.03,-25354.66,746.46,-1306783.58,-654902.94,-42000.71
-570590.65,-1229222.94,-1060.81,-25428.15,719.64,-1306666.9,-654812.82,-42049.53
-570602.72,-1229243.59,-1047.4,-25406.15,718.83,-1306692.11,-654731.55,-42087.62
-570616.13,-1229280.6,-1035.6,-25394.62,731.71,-1306719.74,-654716.26,-42104.25
-570648.59,-1229313.86,-1040.97,-25383.62,746.19,-1306751.39,-654837.77,-42056.77
-570694.99,-1229348.2,-1064.03,-25354.66,746.46,-1306783.58,-654902.94,-42000.71
-570732,-1229379.85,-1080.13,-25317.1,728.49,-1306813.08,-654913.67,-42005.27
-570738.44,-1229408.55,-1060.81,-25299.67,708.91,-1306839.9,-654859.49,-42108.27
-570744.34,-1229438.05,-1040.16,-25287.06,715.88,-1306867.53,-654772.59,-42157.35
-570785.65,-1229469.97,-1031.85,-25247.1,728.22,-1306897.57,-654954.44,-42081.18
-570838.49,-1229502.69,-1055.45,-25240.12,741.09,-1306928.41,-655018.82,-42011.44
-570732,-1229379.85,-1080.13,-25317.1,728.49,-1306813.08,-654913.67,-42005.27
-570738.44,-1229408.55,-1060.81,-25299.67,708.91,-1306839.9,-654859.49,-42108.27
-570744.34,-1229438.05,-1040.16,-25287.06,715.88,-1306867.53,-654772.59,-42157.35
-570785.65,-1229469.97,-1031.85,-25247.1,728.22,-1306897.57,-654954.44,-42081.18
-570838.49,-1229502.69,-1055.45,-25240.12,741.09,-1306928.41,-655018.82,-42011.44
-570859.94,-1229533,-1063.5,-25256.49,723.93,-1306956.04,-655052.34,-42058.92
-570865.04,-1229562.5,-1049.28,-25220.01,714.27,-1306986.35,-654982.07,-42145.28
-570877.38,-1229593.08,-1035.06,-25220.54,722.05,-1307015.05,-654853.32,-42169.16
-570906.88,-1229623.12,-1044.45,-25232.35,745.39,-1307042.68,-654927.08,-42109.34
-570960.79,-1229654.77,-1071.27,-25231.01,754.77,-1307071.91,-655052.34,-42000.45
-570859.94,-1229533,-1063.5,-25256.49,723.93,-1306956.04,-655052.34,-42058.92
-570865.04,-1229562.5,-1049.28,-25220.01,714.27,-1306986.35,-654982.07,-42145.28
-570877.38,-1229593.08,-1035.06,-25220.54,722.05,-1307015.05,-654853.32,-42169.16
-570906.88,-1229623.12,-1044.45,-25232.35,745.39,-1307042.68,-654927.08,-42109.34
-570960.79,-1229654.77,-1071.27,-25231.01,754.77,-1307071.91,-655052.34,-42000.45
-570995.66,-1229688.3,-1075.83,-25217.59,730.37,-1307103.29,-655124.23,-42019.49
-571014.17,-1229719.15,-1045.79,-25156.44,708.37,-1307131.46,-655091.24,-42079.57
-571015.51,-1229748.92,-1032.38,-25141.42,721.51,-1307160.43,-654967.85,-42143.68
-571053.06,-1229780.3,-1038.01,-25145.44,741.63,-1307189.13,-655124.49,-42075.82
-571099.73,-1229811.41,-1052.77,-25148.93,744.31,-1307219.43,-655205.77,-42023.51
-570995.66,-1229688.3,-1075.83,-25217.59,730.37,-1307103.29,-655124.23,-42019.49
-571014.17,-1229719.15,-1045.79,-25156.44,708.37,-1307131.46,-655091.24,-42079.57
-571015.51,-1229748.92,-1032.38,-25141.42,721.51,-1307160.43,-654967.85,-42143.68
-571053.06,-1229780.3,-1038.01,-25145.44,741.63,-1307189.13,-655124.49,-42075.82
-571099.73,-1229811.41,-1052.77,-25148.93,744.31,-1307219.43,-655205.77,-42023.51
-571129.24,-1229842.26,-1060.81,-25131.76,729.29,-1307248.94,-655199.86,-42045.77
-571132.72,-1229871.5,-1055.99,-25103.6,715.88,-1307276.57,-655112.69,-42130.26
-571149.09,-1229902.07,-1047.4,-25080,723.12,-1307305.26,-655137.64,-42125.97
-571181,-1229933.45,-1046.33,-25070.34,734.66,-1307335.31,-655257.26,-42084.93
-571229.82,-1229965.1,-1071.01,-25060.42,739.49,-1307366.42,-655314.93,-42018.15
-571129.24,-1229842.26,-1060.81,-25131.76,729.29,-1307248.94,-655199.86,-42045.77
-571132.72,-1229871.5,-1055.99,-25103.6,715.88,-1307276.57,-655112.69,-42130.26
-571149.09,-1229902.07,-1047.4,-25080,723.12,-1307305.26,-655137.64,-42125.97
-571181,-1229933.45,-1046.33,-25070.34,734.66,-1307335.31,-655257.26,-42084.93
-571229.82,-1229965.1,-1071.01,-25060.42,739.49,-1307366.42,-655314.93,-42018.15
-571254.76,-1229995.41,-1077.44,-25071.95,723.39,-1307394.85,-655310.91,-42039.34
-571270.05,-1230025.45,-1072.08,-25040.84,722.32,-1307421.94,-655300.18,-42080.91
-571280.78,-1230055.49,-1060.28,-25016.43,729.02,-1307450.91,-655244.39,-42111.22
-571308.94,-1230087.68,-1055.45,-25015.62,738.41,-1307482.29,-655355.43,-42069.11
-571354.01,-1230118.53,-1055.72,-25007.85,736.53,-1307511.26,-655408,-42028.61
-571254.76,-1229995.41,-1077.44,-25071.95,723.39,-1307394.85,-655310.91,-42039.34
-571270.05,-1230025.45,-1072.08,-25040.84,722.32,-1307421.94,-655300.18,-42080.91
-571280.78,-1230055.49,-1060.28,-25016.43,729.02,-1307450.91,-655244.39,-42111.22
-571308.94,-1230087.68,-1055.45,-25015.62,738.41,-1307482.29,-655355.43,-42069.11
-571354.01,-1230118.53,-1055.72,-25007.85,736.53,-1307511.26,-655408,-42028.61
-571381.9,-1230150.18,-1074.49,-25004.63,721.78,-1307539.69,-655387.08,-42052.75
-571388.87,-1230181.56,-1073.42,-24967.88,709.18,-1307570,-655301.25,-42124.1
-571401.21,-1230210.26,-1060.81,-24947.76,706.49,-1307597.89,-655259.95,-42165.67
-571435.28,-1230241.91,-1062.15,-24942.94,718.83,-1307627.67,-655392.72,-42113.1
-571481.41,-1230275.44,-1087.1,-24966,728.76,-1307659.85,-655502.69,-42028.61
-571381.9,-1230150.18,-1074.49,-25004.63,721.78,-1307539.69,-655387.08,-42052.75
-571388.87,-1230181.56,-1073.42,-24967.88,709.18,-1307570,-655301.25,-42124.1
-571401.21,-1230210.26,-1060.81,-24947.76,706.49,-1307597.89,-655259.95,-42165.67
-571435.28,-1230241.91,-1062.15,-24942.94,718.83,-1307627.67,-655392.72,-42113.1
-571481.41,-1230275.44,-1087.1,-24966,728.76,-1307659.85,-655502.69,-42028.61
-571513.06,-1230305.75,-1086.29,-24947.76,704.35,-1307688.82,-655519.85,-42024.85
-571518.43,-1230335.25,-1068.59,-24936.5,697.64,-1307715.91,-655405.59,-42137.51
-571534.25,-1230362.61,-1048.21,-24901.36,705.69,-1307742.73,-655428.39,-42152.26
-571572.61,-1230392.92,-1053.84,-24887.95,735.46,-1307771.97,-655503.49,-42091.37
-571616.33,-1230426.44,-1079.32,-24888.76,738.68,-1307803.62,-655592.54,-42028.61
-571513.06,-1230305.75,-1086.29,-24947.76,704.35,-1307688.82,-655519.85,-42024.85
-571518.43,-1230335.25,-1068.59,-24936.5,697.64,-1307715.91,-655405.59,-42137.51
-571534.25,-1230362.61,-1048.21,-24901.36,705.69,-1307742.73,-655428.39,-42152.26
-571572.61,-1230392.92,-1053.84,-24887.95,735.46,-1307771.97,-655503.49,-42091.37
-571616.33,-1230426.44,-1079.32,-24888.76,738.68,-1307803.62,-655592.54,-42028.61
-571642.88,-1230459.17,-1073.15,-24877.22,708.1,-1307834.46,-655633.85,-42064.01
-571646.9,-1230488.4,-1058.4,-24837.79,700.86,-1307863.43,-655546.94,-42133.48
-571664.07,-1230498.86,-1042.57,-24810.17,704.62,-1307892.13,-655494.37,-42144.21
-571716.1,-1230541.78,-1041.77,-24763.23,724.46,-1307922.17,-655661.2,-42041.48
-571759.56,-1230578.79,-1065.37,-24749.28,731.71,-1307951.68,-655722.9,-42013.59
-571642.88,-1230459.17,-1073.15,-24877.22,708.1,-1307834.46,-655633.85,-42064.01
-571646.9,-1230488.4,-1058.4,-24837.79,700.86,-1307863.43,-655546.94,-42133.48
-571664.07,-1230498.86,-1042.57,-24810.17,704.62,-1307892.13,-655494.37,-42144.21
-571716.1,-1230541.78,-1041.77,-24763.23,724.46,-1307922.17,-655661.2,-42041.48
-571759.56,-1230578.79,-1065.37,-24749.28,731.71,-1307951.68,-655722.9,-42013.59
-571780.75,-1230608.57,-1071.81,-24751.43,715.61,-1307981.18,-655720.75,-42072.06
-571793.35,-1230629.22,-1056.79,-24711.73,700.86,-1308009.61,-655647.26,-42136.43
-571801.13,-1230663.28,-1041.77,-24704.49,706.49,-1308038.85,-655630.36,-42170.77
-571833.32,-1230698.69,-1039.62,-24698.85,722.86,-1308069.96,-655753.74,-42125.44
-571883.21,-1230730.34,-1060.81,-24701,738.41,-1308100.54,-655812.21,-42048.46
-571780.75,-1230608.57,-1071.81,-24751.43,715.61,-1307981.18,-655720.75,-42072.06
-571793.35,-1230629.22,-1056.79,-24711.73,700.86,-1308009.61,-655647.26,-42136.43
-571801.13,-1230663.28,-1041.77,-24704.49,706.49,-1308038.85,-655630.36,-42170.77
-571833.32,-1230698.69,-1039.62,-24698.85,722.86,-1308069.96,-655753.74,-42125.44
-571883.21,-1230730.34,-1060.81,-24701,738.41,-1308100.54,-655812.21,-42048.46
-571913.25,-1230759.84,-1074.22,-24705.56,731.17,-1308128.17,-655800.41,-42066.43
-571921.29,-1230789.62,-1069.4,-24698.32,717.49,-1308157.13,-655782.71,-42141.8
-571933.9,-1230821.53,-1047.67,-24641.72,710.25,-1308186.64,-655823.48,-42139.12
-571957.23,-1230854.26,-1042.57,-24640.11,724.46,-1308216.41,-655901.8,-42116.58
-571998.54,-1230885.1,-1064.57,-24633.95,738.95,-1308247.52,-655936.13,-42071.79
-571913.25,-1230759.84,-1074.22,-24705.56,731.17,-1308128.17,-655800.41,-42066.43
-571921.29,-1230789.62,-1069.4,-24698.32,717.49,-1308157.13,-655782.71,-42141.8
-571933.9,-1230821.53,-1047.67,-24641.72,710.25,-1308186.64,-655823.48,-42139.12
-571957.23,-1230854.26,-1042.57,-24640.11,724.46,-1308216.41,-655901.8,-42116.58
-571998.54,-1230885.1,-1064.57,-24633.95,738.95,-1308247.52,-655936.13,-42071.79
,,,,,,,
-572153.57,-1231070.98,-1068.32,-24595.32,726.34,-1308425.89,-656054.95,-42092.45
-572153.3,-1231100.22,-1057.33,-24576.01,715.61,-1308453.79,-655921.92,-42180.96
-572167.25,-1231128.38,-1047.94,-24563.4,721.25,-1308480.34,-655881.95,-42182.03
-572204.8,-1231161.91,-1055.18,-24556.43,744.04,-1308511.99,-656024.91,-42104.51
-572253.89,-1231196.77,-1073.15,-24524.24,739.75,-1308544.71,-656131.93,-42042.56
-572153.57,-1231070.98,-1068.32,-24595.32,726.34,-1308425.89,-656054.95,-42092.45
-572153.3,-1231100.22,-1057.33,-24576.01,715.61,-1308453.79,-655921.92,-42180.96
-572167.25,-1231128.38,-1047.94,-24563.4,721.25,-1308480.34,-655881.95,-42182.03
-572204.8,-1231161.91,-1055.18,-24556.43,744.04,-1308511.99,-656024.91,-42104.51
-572253.89,-1231196.77,-1073.15,-24524.24,739.75,-1308544.71,-656131.93,-42042.56
-572281.51,-1231226.28,-1066.18,-24508.15,710.52,-1308574.22,-656159.29,-42072.33
-572285.27,-1231255.52,-1053.84,-24489.37,703.01,-1308602.92,-656073.73,-42172.11
-572300.29,-1231285.82,-1035.33,-24481.33,713.2,-1308631.89,-656060.32,-42169.42
-572339.72,-1231317.74,-1033.19,-24451.29,731.17,-1308661.93,-656191.48,-42093.52
-572378.07,-1231350.47,-1059.47,-24441.9,742.97,-1308692.5,-656227.96,-42082.52
-572281.51,-1231226.28,-1066.18,-24508.15,710.52,-1308574.22,-656159.29,-42072.33
-572285.27,-1231255.52,-1053.84,-24489.37,703.01,-1308602.92,-656073.73,-42172.11
-572300.29,-1231285.82,-1035.33,-24481.33,713.2,-1308631.89,-656060.32,-42169.42
-572339.72,-1231317.74,-1033.19,-24451.29,731.17,-1308661.93,-656191.48,-42093.52
-572378.07,-1231350.47,-1059.47,-24441.9,742.97,-1308692.5,-656227.96,-42082.52
-572408.65,-1231382.38,-1052.77,-24439.49,711.59,-1308722.01,-656244.59,-42078.77
-572419.38,-1231412.69,-1036.67,-24409.18,713.47,-1308750.98,-656197.91,-42138.58
-572435.74,-1231441.66,-1033.46,-24395.5,727.15,-1308780.21,-656122.01,-42179.08
-572475.44,-1231475.46,-1037.21,-24359.56,736.8,-1308810.52,-656259.34,-42105.05
-572515.4,-1231505.23,-1067.25,-24376.99,743.78,-1308838.95,-656346.24,-42058.11
-572408.65,-1231382.38,-1052.77,-24439.49,711.59,-1308722.01,-656244.59,-42078.77
-572419.38,-1231412.69,-1036.67,-24409.18,713.47,-1308750.98,-656197.91,-42138.58
-572435.74,-1231441.66,-1033.46,-24395.5,727.15,-1308780.21,-656122.01,-42179.08
-572475.44,-1231475.46,-1037.21,-24359.56,736.8,-1308810.52,-656259.34,-42105.05
-572515.4,-1231505.23,-1067.25,-24376.99,743.78,-1308838.95,-656346.24,-42058.11
-572536.32,-1231535,-1078.78,-24349.36,723.66,-1308867.12,-656308.96,-42088.96
-572535.52,-1231567.19,-1073.42,-24353.39,703.28,-1308898.23,-656185.58,-42190.35
-572546.78,-1231598.03,-1057.6,-24343.46,703.01,-1308929.34,-656168.14,-42226.02
-572582.46,-1231629.95,-1060.55,-24341.05,719.1,-1308960.19,-656295.28,-42146.89
-572634.76,-1231662.94,-1079.32,-24336.49,722.59,-1308991.03,-656369.31,-42052.75
-572536.32,-1231535,-1078.78,-24349.36,723.66,-1308867.12,-656308.96,-42088.96
-572535.52,-1231567.19,-1073.42,-24353.39,703.28,-1308898.23,-656185.58,-42190.35
-572546.78,-1231598.03,-1057.6,-24343.46,703.01,-1308929.34,-656168.14,-42226.02
-572582.46,-1231629.95,-1060.55,-24341.05,719.1,-1308960.19,-656295.28,-42146.89
-572634.76,-1231662.94,-1079.32,-24336.49,722.59,-1308991.03,-656369.31,-42052.75
-572664.8,-1231694.59,-1079.86,-24347.75,704.08,-1309020.54,-656428.05,-42053.28
-572673.65,-1231723.56,-1054.91,-24305.91,693.62,-1309049.77,-656355.09,-42154.14
-572684.65,-1231752.8,-1046.06,-24280.43,709.44,-1309077.13,-656277.84,-42187.66
-572718.98,-1231785.52,-1048.48,-24267.29,726.34,-1309107.71,-656392.91,-42142.6
-572760.82,-1231819.32,-1076.37,-24290.62,730.37,-1309138.55,-656471.5,-42062.4
-572664.8,-1231694.59,-1079.86,-24347.75,704.08,-1309020.54,-656428.05,-42053.28
-572673.65,-1231723.56,-1054.91,-24305.91,693.62,-1309049.77,-656355.09,-42154.14
-572684.65,-1231752.8,-1046.06,-24280.43,709.44,-1309077.13,-656277.84,-42187.66
-572718.98,-1231785.52,-1048.48,-24267.29,726.34,-1309107.71,-656392.91,-42142.6
-572760.82,-1231819.32,-1076.37,-24290.62,730.37,-1309138.55,-656471.5,-42062.4
-572788.72,-1231849.36,-1071.27,-24285.79,705.15,-1309168.06,-656526.75,-42067.23
-572800.52,-1231879.13,-1053.3,-24252.27,709.18,-1309195.95,-656485.98,-42148.5
-572809.64,-1231908.37,-1044.45,-24236.17,729.29,-1309223.85,-656451.92,-42183.1
-572848,-1231939.75,-1046.6,-24249.05,741.09,-1309255.23,-656520.58,-42110.42
-572891.98,-1231972.74,-1064.03,-24243.15,746.46,-1309286.88,-656619.02,-42062.4
-572788.72,-1231849.36,-1071.27,-24285.79,705.15,-1309168.06,-656526.75,-42067.23
-572800.52,-1231879.13,-1053.3,-24252.27,709.18,-1309195.95,-656485.98,-42148.5
-572809.64,-1231908.37,-1044.45,-24236.17,729.29,-1309223.85,-656451.92,-42183.1
-572848,-1231939.75,-1046.6,-24249.05,741.09,-1309255.23,-656520.58,-42110.42
-572891.98,-1231972.74,-1064.03,-24243.15,746.46,-1309286.88,-656619.02,-42062.4
-572919.61,-1232003.05,-1064.3,-24228.93,725.54,-1309316.92,-656651.21,-42094.32
-572925.24,-1232033.62,-1040.16,-24186.55,712.39,-1309344.28,-656579.59,-42187.4
-572937.58,-1232064.74,-1019.78,-24161.34,722.86,-1309373.78,-656584.42,-42189.27
-572970.84,-1232098.8,-1021.65,-24155.17,745.12,-1309405.97,-656623.31,-42138.58
-573027.97,-1232130.45,-1044.72,-24140.42,753.43,-1309436.55,-656735.97,-42060.26
-572919.61,-1232003.05,-1064.3,-24228.93,725.54,-1309316.92,-656651.21,-42094.32
-572925.24,-1232033.62,-1040.16,-24186.55,712.39,-1309344.28,-656579.59,-42187.4
-572937.58,-1232064.74,-1019.78,-24161.34,722.86,-1309373.78,-656584.42,-42189.27
-572970.84,-1232098.8,-1021.65,-24155.17,745.12,-1309405.97,-656623.31,-42138.58
-573027.97,-1232130.45,-1044.72,-24140.42,753.43,-1309436.55,-656735.97,-42060.26
-573055.87,-1232155.4,-1045.26,-24129.96,732.24,-1309466.05,-656739.45,-42099.69
-573055.33,-1232168.54,-1036.41,-24121.64,725.27,-1309493.68,-656635.38,-42201.88
-573068.74,-1232214.94,-1014.41,-24112.26,727.68,-1309524.26,-656610.71,-42223.07
-573102.81,-1232246.32,-1017.9,-24106.09,750.48,-1309552.96,-656688.49,-42159.5
-573159.13,-1232277.97,-1038.55,-24110.38,765.23,-1309582.19,-656806.51,-42046.31
-573055.87,-1232155.4,-1045.26,-24129.96,732.24,-1309466.05,-656739.45,-42099.69
-573055.33,-1232168.54,-1036.41,-24121.64,725.27,-1309493.68,-656635.38,-42201.88
-573068.74,-1232214.94,-1014.41,-24112.26,727.68,-1309524.26,-656610.71,-42223.07
-573102.81,-1232246.32,-1017.9,-24106.09,750.48,-1309552.96,-656688.49,-42159.5
-573159.13,-1232277.97,-1038.55,-24110.38,765.23,-1309582.19,-656806.51,-42046.31
,,,,,,,
-573314.7,-1232467.61,-1048.74,-24035.81,737.07,-1309764.58,-656906.29,-42092.98
-573320.33,-1232496.57,-1036.67,-23997.99,723.12,-1309793.01,-656787.73,-42199.73
-573331.06,-1232528.76,-1024.34,-23987.53,727.42,-1309823.05,-656731.41,-42215.29
-573376.93,-1232563.36,-1019.78,-23967.95,740.29,-1309856.05,-656911.38,-42123.29
-573433.25,-1232594.47,-1044.18,-23966.88,760.41,-1309885.55,-657002.04,-42056.24
-573314.7,-1232467.61,-1048.74,-24035.81,737.07,-1309764.58,-656906.29,-42092.98
-573320.33,-1232496.57,-1036.67,-23997.99,723.12,-1309793.01,-656787.73,-42199.73
-573331.06,-1232528.76,-1024.34,-23987.53,727.42,-1309823.05,-656731.41,-42215.29
-573376.93,-1232563.36,-1019.78,-23967.95,740.29,-1309856.05,-656911.38,-42123.29
-573433.25,-1232594.47,-1044.18,-23966.88,760.41,-1309885.55,-657002.04,-42056.24
-573468.93,-1232623.98,-1038.28,-23934.43,731.17,-1309913.18,-657028.6,-42072.86
-573476.71,-1232653.21,-1027.29,-23904.38,733.85,-1309942.41,-656979.51,-42168.08
-573490.39,-1232684.06,-1010.39,-23871.93,737.07,-1309971.65,-656969.59,-42177.47
-573526.06,-1232717.05,-1025.14,-23869.52,765.23,-1310003.57,-657043.62,-42120.61
-573571.92,-1232749.77,-1049.28,-23846.72,759.87,-1310034.41,-657117.38,-42060.53
-573468.93,-1232623.98,-1038.28,-23934.43,731.17,-1309913.18,-657028.6,-42072.86
-573476.71,-1232653.21,-1027.29,-23904.38,733.85,-1309942.41,-656979.51,-42168.08
-573490.39,-1232684.06,-1010.39,-23871.93,737.07,-1309971.65,-656969.59,-42177.47
-573526.06,-1232717.05,-1025.14,-23869.52,765.23,-1310003.57,-657043.62,-42120.61
-573571.92,-1232749.77,-1049.28,-23846.72,759.87,-1310034.41,-657117.38,-42060.53
-573595.53,-1232781.96,-1051.43,-23824.45,732.78,-1310064.19,-657144.47,-42100.49
-573598.75,-1232788.67,-1030.77,-23818.29,720.98,-1310093.42,-657050.59,-42224.68
-573615.11,-1232807.71,-1014.41,-23801.39,734.39,-1310123.46,-657021.08,-42216.9
-573640.05,-1232866.72,-1017.36,-23778.32,746.46,-1310153.5,-657168.34,-42146.89
-573688.06,-1232898.1,-1042.57,-23772.96,752.63,-1310185.42,-657238.88,-42096.2
-573595.53,-1232781.96,-1051.43,-23824.45,732.78,-1310064.19,-657144.47,-42100.49
-573598.75,-1232788.67,-1030.77,-23818.29,720.98,-1310093.42,-657050.59,-42224.68
-573615.11,-1232807.71,-1014.41,-23801.39,734.39,-1310123.46,-657021.08,-42216.9
-573640.05,-1232866.72,-1017.36,-23778.32,746.46,-1310153.5,-657168.34,-42146.89
-573688.06,-1232898.1,-1042.57,-23772.96,752.63,-1310185.42,-657238.88,-42096.2
-573719.18,-1232929.75,-1049.55,-23764.37,733.05,-1310216.27,-657243.17,-42119.27
-573720.79,-1232960.33,-1042.04,-23746.4,725.81,-1310244.43,-657154.66,-42207.24
-573731.78,-1232990.64,-1029.7,-23720.92,725.81,-1310273.93,-657117.91,-42236.75
-573770.94,-1233020.14,-1041.23,-23713.14,746.46,-1310301.29,-657240.49,-42149.58
-573814.93,-1233053.13,-1061.35,-23718.78,748.34,-1310333.48,-657337.85,-42083.06
-573719.18,-1232929.75,-1049.55,-23764.37,733.05,-1310216.27,-657243.17,-42119.27
-573720.79,-1232960.33,-1042.04,-23746.4,725.81,-1310244.43,-657154.66,-42207.24
-573731.78,-1232990.64,-1029.7,-23720.92,725.81,-1310273.93,-657117.91,-42236.75
-573770.94,-1233020.14,-1041.23,-23713.14,746.46,-1310301.29,-657240.49,-42149.58
-573814.93,-1233053.13,-1061.35,-23718.78,748.34,-1310333.48,-657337.85,-42083.06
-573842.56,-1233086.39,-1065.91,-23702.41,727.42,-1310364.86,-657356.36,-42116.32
-573836.93,-1233115.9,-1055.18,-23686.59,703.81,-1310393.56,-657231.91,-42231.38
-573854.09,-1233147.55,-1042.31,-23666.47,710.25,-1310423.33,-657165.66,-42229.24
-573883.87,-1233179.2,-1044.18,-23670.23,727.15,-1310453.91,-657323.37,-42158.43
-573936.97,-1233212.99,-1063.5,-23674.25,738.68,-1310485.29,-657383.99,-42080.64
-573842.56,-1233086.39,-1065.91,-23702.41,727.42,-1310364.86,-657356.36,-42116.32
-573836.93,-1233115.9,-1055.18,-23686.59,703.81,-1310393.56,-657231.91,-42231.38
-573854.09,-1233147.55,-1042.31,-23666.47,710.25,-1310423.33,-657165.66,-42229.24
-573883.87,-1233179.2,-1044.18,-23670.23,727.15,-1310453.91,-657323.37,-42158.43
-573936.97,-1233212.99,-1063.5,-23674.25,738.68,-1310485.29,-657383.99,-42080.64
-573979.08,-1233245.18,-1077.44,-23634.82,720.98,-1310515.6,-657426.37,-42078.23
-573980.96,-1233273.34,-1057.86,-23600.49,701.93,-1310543.5,-657365.21,-42192.22
-573986.59,-1233303.11,-1042.84,-23591.37,709.18,-1310573.27,-657299.5,-42242.38
-574018.78,-1233336.37,-1050.35,-23611.22,726.88,-1310604.92,-657328.73,-42197.59
-574075.91,-1233368.56,-1069.67,-23623.29,727.95,-1310636.03,-657486.18,-42077.96
-573979.08,-1233245.18,-1077.44,-23634.82,720.98,-1310515.6,-657426.37,-42078.23
-573980.96,-1233273.34,-1057.86,-23600.49,701.93,-1310543.5,-657365.21,-42192.22
-573986.59,-1233303.11,-1042.84,-23591.37,709.18,-1310573.27,-657299.5,-42242.38
-574018.78,-1233336.37,-1050.35,-23611.22,726.88,-1310604.92,-657328.73,-42197.59
-574075.91,-1233368.56,-1069.67,-23623.29,727.95,-1310636.03,-657486.18,-42077.96
-574111.85,-1233397.8,-1068.06,-23592.98,718.83,-1310663.39,-657528.83,-42090.57
-574117.22,-1233427.84,-1066.18,-23580.37,723.66,-1310692.09,-657474.38,-42194.91
-574129.56,-1233460.56,-1050.89,-23560.26,725.81,-1310723.74,-657472.23,-42202.42
-574162.28,-1233493.55,-1045.26,-23545.51,735.19,-1310756.73,-657581.67,-42139.38
-574206.54,-1233524.93,-1064.57,-23527.53,743.24,-1310785.97,-657634.24,-42100.22
-574111.85,-1233397.8,-1068.06,-23592.98,718.83,-1310663.39,-657528.83,-42090.57
-574117.22,-1233427.84,-1066.18,-23580.37,723.66,-1310692.09,-657474.38,-42194.91
-574129.56,-1233460.56,-1050.89,-23560.26,725.81,-1310723.74,-657472.23,-42202.42
-574162.28,-1233493.55,-1045.26,-23545.51,735.19,-1310756.73,-657581.67,-42139.38
-574206.54,-1233524.93,-1064.57,-23527.53,743.24,-1310785.97,-657634.24,-42100.22
-574240.06,-1233556.58,-1066.71,-23513.85,721.51,-1310815.2,-657665.89,-42127.58
-574244.09,-1233587.7,-1050.35,-23478.45,714,-1310846.05,-657603.12,-42206.71
-574258.84,-1233617.47,-1031.04,-23470.4,726.61,-1310875.29,-657512.47,-42220.65
-574295.58,-1233648.31,-1033.99,-23455.11,736,-1310903.72,-657605,-42174.79
-574344.13,-1233682.65,-1058.13,-23472.82,742.97,-1310936.44,-657739.38,-42091.1
-574240.06,-1233556.58,-1066.71,-23513.85,721.51,-1310815.2,-657665.89,-42127.58
-574244.09,-1233587.7,-1050.35,-23478.45,714,-1310846.05,-657603.12,-42206.71
-574258.84,-1233617.47,-1031.04,-23470.4,726.61,-1310875.29,-657512.47,-42220.65
-574295.58,-1233648.31,-1033.99,-23455.11,736,-1310903.72,-657605,-42174.79
-574344.13,-1233682.65,-1058.13,-23472.82,742.97,-1310936.44,-657739.38,-42091.1
-574366.93,-1233713.49,-1055.99,-23487.3,726.07,-1310966.48,-657730.53,-42110.95
-574379,-1233743.26,-1033.72,-23465.31,713.74,-1310995.98,-657675.54,-42204.56
-574391.61,-1233774.11,-1021.92,-23456.99,729.83,-1311023.61,-657665.62,-42234.07
-574429.96,-1233805.49,-1031.58,-23471.74,756.65,-1311055.26,-657759.23,-42139.92
-574475.02,-1233838.75,-1043.92,-23455.92,749.41,-1311085.3,-657810.46,-42097
-574366.93,-1233713.49,-1055.99,-23487.3,726.07,-1310966.48,-657730.53,-42110.95
-574379,-1233743.26,-1033.72,-23465.31,713.74,-1310995.98,-657675.54,-42204.56
-574391.61,-1233774.11,-1021.92,-23456.99,729.83,-1311023.61,-657665.62,-42234.07
-574429.96,-1233805.49,-1031.58,-23471.74,756.65,-1311055.26,-657759.23,-42139.92
-574475.02,-1233838.75,-1043.92,-23455.92,749.41,-1311085.3,-657810.46,-42097
-574501.58,-1233871.47,-1051.69,-23454.58,733.32,-1311117.49,-657812.07,-42138.04
-574506.94,-1233901.25,-1037.75,-23425.07,709.71,-1311146.19,-657725.97,-42224.68
-574517.67,-1233932.36,-1025.95,-23415.95,723.66,-1311176.77,-657666.16,-42248.01
-574559.25,-1233964.01,-1033.99,-23384.04,737.34,-1311206.81,-657816.36,-42177.74
-574605.65,-1233995.66,-1067.52,-23376.79,737.88,-1311236.85,-657867.59,-42125.7
-574501.58,-1233871.47,-1051.69,-23454.58,733.32,-1311117.49,-657812.07,-42138.04
-574506.94,-1233901.25,-1037.75,-23425.07,709.71,-1311146.19,-657725.97,-42224.68
-574517.67,-1233932.36,-1025.95,-23415.95,723.66,-1311176.77,-657666.16,-42248.01
-574559.25,-1233964.01,-1033.99,-23384.04,737.34,-1311206.81,-657816.36,-42177.74
-574605.65,-1233995.66,-1067.52,-23376.79,737.88,-1311236.85,-657867.59,-42125.7
-574630.86,-1234025.97,-1072.62,-23375.99,707.3,-1311267.16,-657934.91,-42155.21
-574633.81,-1234056.81,-1060.81,-23359.09,696.57,-1311296.93,-657824.94,-42254.72
-574645.08,-1234088.73,-1048.21,-23354.53,702.2,-1311326.7,-657745.28,-42270.28
-574677.8,-1234121.19,-1059.2,-23364.46,721.25,-1311357.55,-657878.05,-42191.69
-574725.01,-1234151.23,-1073.42,-23366.07,720.98,-1311386.78,-657994.99,-42121.68
-574630.86,-1234025.97,-1072.62,-23375.99,707.3,-1311267.16,-657934.91,-42155.21
-574633.81,-1234056.81,-1060.81,-23359.09,696.57,-1311296.93,-657824.94,-42254.72
-574645.08,-1234088.73,-1048.21,-23354.53,702.2,-1311326.7,-657745.28,-42270.28
-574677.8,-1234121.19,-1059.2,-23364.46,721.25,-1311357.55,-657878.05,-42191.69
-574725.01,-1234151.23,-1073.42,-23366.07,720.98,-1311386.78,-657994.99,-42121.68
-574766.31,-1234180.73,-1076.37,-23338.71,709.98,-1311414.95,-658034.16,-42102.64
-574778.65,-1234214.8,-1054.64,-23290.16,698.72,-1311448.74,-658008.94,-42184.71
-574778.65,-1234245.91,-1038.28,-23284.53,712.93,-1311478.78,-657877.78,-42274.3
-574813.79,-1234277.83,-1041.77,-23283.99,723.12,-1311508.29,-658037.11,-42202.95
-574859.39,-1234310.82,-1053.84,-23311.08,720.71,-1311541.01,-658123.2,-42132.14
-574766.31,-1234180.73,-1076.37,-23338.71,709.98,-1311414.95,-658034.16,-42102.64
-574778.65,-1234214.8,-1054.64,-23290.16,698.72,-1311448.74,-658008.94,-42184.71
-574778.65,-1234245.91,-1038.28,-23284.53,712.93,-1311478.78,-657877.78,-42274.3
-574813.79,-1234277.83,-1041.77,-23283.99,723.12,-1311508.29,-658037.11,-42202.95
-574859.39,-1234310.82,-1053.84,-23311.08,720.71,-1311541.01,-658123.2,-42132.14
-574883.26,-1234340.59,-1047.13,-23301.69,709.71,-1311571.32,-658132.06,-42171.03
-574885.94,-1234371.17,-1037.21,-23269.51,709.18,-1311598.95,-658038.72,-42249.62
-574901.23,-1234402.01,-1020.04,-23248.58,715.61,-1311628.99,-658029.6,-42263.3
-574934.22,-1234433.66,-1024.87,-23246.71,734.66,-1311659.83,-658133.4,-42216.09
-574990.55,-1234467.19,-1050.62,-23246.44,751.82,-1311691.21,-658224.06,-42119.54
-574883.26,-1234340.59,-1047.13,-23301.69,709.71,-1311571.32,-658132.06,-42171.03
-574885.94,-1234371.17,-1037.21,-23269.51,709.18,-1311598.95,-658038.72,-42249.62
-574901.23,-1234402.01,-1020.04,-23248.58,715.61,-1311628.99,-658029.6,-42263.3
-574934.22,-1234433.66,-1024.87,-23246.71,734.66,-1311659.83,-658133.4,-42216.09
-574990.55,-1234467.19,-1050.62,-23246.44,751.82,-1311691.21,-658224.06,-42119.54
-575024.61,-1234499.92,-1063.5,-23234.1,742.7,-1311722.33,-658221.37,-42134.02
-575037.22,-1234529.42,-1040.43,-23190.38,728.22,-1311751.03,-658246.32,-42195.17
-575049.55,-1234558.92,-1027.82,-23138.61,741.36,-1311778.39,-658305.86,-42215.02
-575085.5,-1234592.45,-1038.01,-23115.01,762.82,-1311809.23,-658351.46,-42164.33
-575130.82,-1234624.64,-1057.86,-23117.16,758.8,-1311841.69,-658366.75,-42123.83
-575024.61,-1234499.92,-1063.5,-23234.1,742.7,-1311722.33,-658221.37,-42134.02
-575037.22,-1234529.42,-1040.43,-23190.38,728.22,-1311751.03,-658246.32,-42195.17
-575049.55,-1234558.92,-1027.82,-23138.61,741.36,-1311778.39,-658305.86,-42215.02
-575085.5,-1234592.45,-1038.01,-23115.01,762.82,-1311809.23,-658351.46,-42164.33
-575130.82,-1234624.64,-1057.86,-23117.16,758.8,-1311841.69,-658366.75,-42123.83
-575163.28,-1234655.75,-1078.25,-23104.55,747,-1311873.07,-658402.42,-42141.53
-575180.98,-1234687.13,-1071.81,-23047.15,736.53,-1311901.77,-658434.61,-42188.74
-575191.17,-1234718.78,-1062.42,-23013.35,746.73,-1311931,-658458.21,-42229.24
-575229.26,-1234750.7,-1071.54,-23015.77,758.53,-1311962.38,-658483.69,-42176.13
-575268.42,-1234783.69,-1095.15,-23038.84,766.84,-1311994.3,-658525.27,-42144.21
-575163.28,-1234655.75,-1078.25,-23104.55,747,-1311873.07,-658402.42,-42141.53
-575180.98,-1234687.13,-1071.81,-23047.15,736.53,-1311901.77,-658434.61,-42188.74
-575191.17,-1234718.78,-1062.42,-23013.35,746.73,-1311931,-658458.21,-42229.24
-575229.26,-1234750.7,-1071.54,-23015.77,758.53,-1311962.38,-658483.69,-42176.13
-575268.42,-1234783.69,-1095.15,-23038.84,766.84,-1311994.3,-658525.27,-42144.21
-575304.36,-1234814.54,-1102.66,-22995.12,737.34,-1312023.81,-658577.3,-42127.85
-575326.89,-1234846.19,-1086.03,-22934.23,726.61,-1312053.85,-658589.37,-42182.3
-575330.38,-1234877.57,-1079.59,-22921.89,743.51,-1312083.35,-658562.55,-42230.85
-575355.33,-1234908.68,-1087.64,-22928.33,752.63,-1312113.39,-658611.1,-42187.13
-575403.61,-1234937.12,-1106.95,-22924.84,747.26,-1312139.95,-658680.03,-42113.9
-575304.36,-1234814.54,-1102.66,-22995.12,737.34,-1312023.81,-658577.3,-42127.85
-575326.89,-1234846.19,-1086.03,-22934.23,726.61,-1312053.85,-658589.37,-42182.3
-575330.38,-1234877.57,-1079.59,-22921.89,743.51,-1312083.35,-658562.55,-42230.85
-575355.33,-1234908.68,-1087.64,-22928.33,752.63,-1312113.39,-658611.1,-42187.13
-575403.61,-1234937.12,-1106.95,-22924.84,747.26,-1312139.95,-658680.03,-42113.9
,,,,,,,
-575571.24,-1235129.16,-1135.11,-22810.04,730.63,-1312325.02,-658868.05,-42049.26
-575575,-1235160.01,-1120.9,-22796.1,707.57,-1312353.99,-658838.82,-42113.37
-575587.87,-1235191.12,-1113.92,-22768.2,722.59,-1312384.03,-658897.29,-42074.74
-575624.89,-1235221.7,-1124.65,-22738.43,742.7,-1312413.53,-658961.39,-41974.16
-575671.83,-1235255.23,-1146.38,-22747.01,739.75,-1312444.11,-658993.31,-41921.86
-575571.24,-1235129.16,-1135.11,-22810.04,730.63,-1312325.02,-658868.05,-42049.26
-575575,-1235160.01,-1120.9,-22796.1,707.57,-1312353.99,-658838.82,-42113.37
-575587.87,-1235191.12,-1113.92,-22768.2,722.59,-1312384.03,-658897.29,-42074.74
-575624.89,-1235221.7,-1124.65,-22738.43,742.7,-1312413.53,-658961.39,-41974.16
-575671.83,-1235255.23,-1146.38,-22747.01,739.75,-1312444.11,-658993.31,-41921.86
-575701.06,-1235286.61,-1157.91,-22730.92,719.1,-1312473.88,-658971.32,-41951.63
-575724.13,-1235315.04,-1135.65,-22679.15,699.52,-1312501.24,-659011.82,-41923.47
-575747.73,-1235346.15,-1107.48,-22637.31,717.49,-1312530.74,-659037.84,-41900.67
-575791.72,-1235378.88,-1107.75,-22631.14,740.02,-1312562.93,-659100.87,-41838.17
-575829.27,-1235412.67,-1127.33,-22667.08,744.58,-1312594.31,-659103.55,-41809.47
-575701.06,-1235286.61,-1157.91,-22730.92,719.1,-1312473.88,-658971.32,-41951.63
-575724.13,-1235315.04,-1135.65,-22679.15,699.52,-1312501.24,-659011.82,-41923.47
-575747.73,-1235346.15,-1107.48,-22637.31,717.49,-1312530.74,-659037.84,-41900.67
-575791.72,-1235378.88,-1107.75,-22631.14,740.02,-1312562.93,-659100.87,-41838.17
-575829.27,-1235412.67,-1127.33,-22667.08,744.58,-1312594.31,-659103.55,-41809.47
